0,-333
1,-350
2,-350
3,-300
4,-300
5,-333
6,-317
7,-333
8,-333
9,-367
10,-350
11,-417
12,-417
13,-383
14,-417
15,-467
16,-467
17,-517
18,-533
19,-583
20,-583
21,-633
22,-633
23,-600
24,-633
25,-600
26,-600
27,-583
28,-583
29,-567
30,-583
31,-567
32,-600
33,-550
34,-550
35,-500
36,-517
37,-417
38,-417
39,-367
40,-367
41,-317
42,-317
43,-250
44,-267
45,-183
46,-167
47,-83
48,-83
49,50
50,50
51,133
52,150
53,100
54,83
55,-183
56,-200
57,-450
58,-450
59,-567
60,-567
61,-550
62,-567
63,-500
64,-500
65,-450
66,-467
67,-483
68,-483
69,-533
70,-533
71,-600
72,-600
73,-783
74,-783
75,-1083
76,-1100
77,-883
78,-850
79,100
80,133
81,367
82,317
83,33
84,50
85,17
86,17
87,-50
88,-67
89,-17
90,-17
91,67
92,67
93,350
94,367
95,700
96,717
97,17
98,-283
99,2650
100,3217
101,333
102,3017
103,-1817
104,-1967
105,-3783
106,-3817
107,-2767
108,-2700
109,-833
110,-767
111,267
112,300
113,617
114,600
115,200
116,183
117,-183
118,-200
119,-317
120,-300
121,-200
122,-183
123,-33
124,-33
125,67
126,67
127,150
128,133
129,217
130,217
131,333
132,333
133,517
134,517
135,833
136,850
137,1383
138,1400
139,1950
140,2317
141,1300
142,1133
143,-483
144,-183
145,1800
146,1450
147,1050
148,1067
149,1150
150,1083
151,650
152,633
153,17
154,0
155,-467
156,-483
157,-783
158,-800
159,-983
160,-983
161,-1050
162,-1033
163,-1050
164,-1050
165,-983
166,-1000
167,-917
168,-933
169,-817
170,-800
171,-717
172,-717
173,-600
174,-583
175,-500
176,-500
177,-417
178,-417
179,-367
180,-383
181,-333
182,-333
183,-283
184,-333
185,-300
186,-300
187,-250
188,-250
189,-167
190,-167
191,-83
192,-83
193,17
194,17
195,33
196,50
197,17
198,33
199,17
200,0
201,50
202,33
203,67
204,33
205,67
206,50
207,17
208,33
209,0
210,0
211,-33
212,-50
213,-33
214,-67
215,-33
216,-33
217,-67
218,-67
219,-83
220,-67
221,-83
222,-83
223,-100
224,-83
225,-50
226,-50
227,17
228,17
229,83
230,83
231,133
232,133
233,200
234,200
235,233
236,233
237,300
238,283
239,400
240,400
241,500
242,483
243,567
244,567
245,533
246,550
247,483
248,483
249,367
250,367
251,283
252,283
253,250
254,283
255,300
256,283
257,150
258,133
259,-150
260,-150
261,-333
262,-317
263,-333
264,-333
265,-300
266,-333
267,-283
268,-317
269,-250
270,-267
271,-217
272,-233
273,-83
274,-83
275,50
276,67
277,217
278,217
279,150
280,200
281,33
282,17
283,-667
284,-667
285,367
286,383
287,-717
288,-483
289,183
290,200
291,417
292,417
293,500
294,517
295,567
296,550
297,433
298,417
299,283
300,267
301,150
302,150
303,50
304,67
305,33
306,33
307,67
308,67
309,117
310,100
311,17
312,17
313,-100
314,-100
315,-300
316,-300
317,-433
318,-433
319,-400
320,-400
321,-283
322,-267
323,-133
324,-133
325,17
326,33
327,200
328,200
329,367
330,367
331,400
332,367
333,317
334,317
335,233
336,233
337,167
338,167
339,133
340,133
341,100
342,117
343,83
344,83
345,100
346,83
347,167
348,150
349,200
350,200
351,250
352,250
353,267
354,283
355,317
356,300
357,317
358,283
359,333
360,317
361,367
362,367
363,417
364,417
365,450
366,433
367,383
368,400
369,317
370,317
371,200
372,200
373,67
374,67
375,-33
376,-33
377,-100
378,-83
379,-50
380,-83
381,-33
382,-50
383,-17
384,-67
385,-50
386,-67
387,-83
388,-83
389,-100
390,-100
391,-83
392,-83
393,-50
394,-50
395,-67
396,-67
397,-33
398,-50
399,-100
400,-83
401,-117
402,-133
403,-300
404,-300
405,-367
406,-367
407,-350
408,-333
409,-300
410,-300
411,-217
412,-217
413,-167
414,-167
415,-133
416,-117
417,17
418,17
419,83
420,67
421,-17
422,-17
423,-583
424,-617
425,-1467
426,-1500
427,-1183
428,-1133
429,-50
430,0
431,800
432,817
433,900
434,800
435,467
436,467
437,300
438,300
439,233
440,250
441,217
442,200
443,283
444,283
445,333
446,317
447,367
448,367
449,550
450,700
451,517
452,17
453,1533
454,2633
455,-250
456,2183
457,-1950
458,-2117
459,-2667
460,-2650
461,-1167
462,-1133
463,-650
464,-633
465,-483
466,-483
467,-383
468,-383
469,-450
470,-450
471,-400
472,-450
473,-467
474,-450
475,-383
476,-383
477,-283
478,-300
479,-233
480,-233
481,-200
482,-200
483,-167
484,-183
485,-217
486,-217
487,-183
488,-183
489,-100
490,-83
491,-33
492,-17
493,83
494,83
495,217
496,217
497,267
498,267
499,133
500,133
501,-167
502,-183
503,-483
504,-483
505,-650
506,-667
507,-617
508,-600
509,-467
510,-467
511,-400
512,-400
513,-383
514,-400
515,-450
516,-433
517,-467
518,-467
519,-433
520,-417
521,-367
522,-367
523,-300
524,-300
525,-267
526,-267
527,-200
528,-200
529,-150
530,-167
531,-117
532,-117
533,-167
534,-167
535,-183
536,-167
537,-267
538,-267
539,-333
540,-333
541,-400
542,-400
543,-450
544,-433
545,-467
546,-467
547,-500
548,-500
549,-467
550,-467
551,-383
552,-383
553,-283
554,-283
555,-233
556,-233
557,-267
558,-233
559,-217
560,-233
561,-200
562,-217
563,-183
564,-183
565,-167
566,-183
567,-217
568,-217
569,-283
570,-250
571,-150
572,-133
573,-67
574,-50
575,0
576,0
577,67
578,67
579,183
580,167
581,317
582,333
583,517
584,533
585,817
586,833
587,1283
588,1317
589,1750
590,1950
591,633
592,500
593,-400
594,367
595,833
596,800
597,1233
598,1250
599,1417
600,1350
601,833
602,800
603,50
604,33
605,-517
606,-517
607,-800
608,-800
609,-1000
610,-1000
611,-1067
612,-1067
613,-1100
614,-1083
615,-1017
616,-1017
617,-950
618,-950
619,-833
620,-833
621,-733
622,-733
623,-583
624,-567
625,-333
626,-317
627,-167
628,-167
629,-250
630,-250
631,-333
632,-333
633,-383
634,-383
635,-433
636,-433
637,-383
638,-383
639,-383
640,-350
641,-367
642,-300
643,-300
644,-233
645,-250
646,-200
647,-200
648,-150
649,-150
650,-83
651,-100
652,-50
653,-67
654,-33
655,-50
656,-33
657,-50
658,-100
659,-67
660,-100
661,-67
662,-17
663,-33
664,17
665,17
666,0
667,17
668,83
669,83
670,150
671,150
672,200
673,200
674,300
675,300
676,383
677,383
678,483
679,500
680,650
681,667
682,1217
683,1483
684,-350
685,-567
686,-400
687,-383
688,-83
689,-67
690,67
691,67
692,117
693,100
694,117
695,117
696,67
697,67
698,100
699,100
700,167
701,183
702,217
703,217
704,183
705,233
706,267
707,250
708,283
709,267
710,300
711,300
712,383
713,383
714,500
715,500
716,583
717,600
718,633
719,617
720,567
721,583
722,533
723,550
724,467
725,467
726,433
727,450
728,367
729,367
730,317
731,300
732,217
733,217
734,283
735,283
736,317
737,300
738,333
739,300
740,333
741,333
742,383
743,383
744,467
745,467
746,533
747,550
748,633
749,650
750,783
751,800
752,750
753,767
754,850
755,850
756,750
757,733
758,550
759,550
760,317
761,300
762,167
763,150
764,-633
765,-783
766,-567
767,-550
768,-300
769,-300
770,133
771,150
772,800
773,800
774,967
775,983
776,800
777,783
778,450
779,433
780,250
781,233
782,167
783,167
784,133
785,150
786,0
787,-17
788,-183
789,-233
790,-17
791,17
792,967
793,1000
794,1500
795,1517
796,1683
797,1667
798,967
799,3517
800,717
801,667
802,3350
803,1367
804,-1483
805,-2050
806,-1483
807,-1450
808,-700
809,-667
810,-300
811,-283
812,-133
813,-133
814,-17
815,-17
816,67
817,67
818,33
819,50
820,-50
821,-67
822,-150
823,-150
824,-83
825,-100
826,-50
827,-50
828,-33
829,-33
830,-67
831,-67
832,-183
833,-200
834,-450
835,-450
836,-617
837,-617
838,-683
839,-683
840,-717
841,-700
842,-733
843,-733
844,-867
845,-867
846,-950
847,-950
848,-1017
849,-1017
850,-1067
851,-1067
852,-1100
853,-1083
854,-1117
855,-1133
856,-1100
857,-1083
858,-983
859,-967
860,-850
861,-850
862,-917
863,-917
864,-1033
865,-1033
866,-1233
867,-1250
868,-1383
869,-1383
870,-1450
871,-1433
872,-1500
873,-1500
874,-1667
875,-1683
876,-1983
877,-2000
878,-2333
879,-2333
880,-2583
881,-2600
882,-2717
883,-2733
884,-2700
885,-2717
886,-2667
887,-2700
888,-2667
889,-2667
890,-2633
891,-2650
892,-2683
893,-2683
894,-2617
895,-2617
896,-2550
897,-2567
898,-2467
899,-2483
900,-2433
901,-2433
902,-2350
903,-2350
904,-2250
905,-2250
906,-2083
907,-2083
908,-1950
909,-1933
910,-1700
911,-1683
912,-1367
913,-1367
914,-983
915,-983
916,-533
917,-517
918,-133
919,-133
920,67
921,67
922,133
923,133
924,217
925,183
926,233
927,233
928,283
929,283
930,350
931,333
932,417
933,417
934,483
935,483
936,533
937,533
938,583
939,583
940,683
941,683
942,733
943,733
944,783
945,800
946,867
947,867
948,917
949,917
950,933
951,917
952,933
953,917
954,967
955,967
956,1050
957,1050
958,1150
959,1133
960,1283
961,1283
962,1417
963,1417
964,1517
965,1517
966,1583
967,1583
968,1633
969,1650
970,1600
971,1583
972,1650
973,1650
974,1700
975,1700
976,1750
977,1767
978,1850
979,1850
980,1900
981,1883
982,1967
983,1967
984,2150
985,2167
986,2367
987,2383
988,2717
989,2733
990,3400
991,3400
992,3850
993,3667
994,867
995,767
996,1167
997,900
998,1700
999,1000
1000,1750
1001,2550
1002,2567
1003,2667
1004,2633
1005,2250
1006,2217
1007,1783
1008,1783
1009,1517
1010,1517
1011,1417
1012,1400
1013,1333
1014,1350
1015,1300
1016,1300
1017,1267
1018,1267
1019,1217
1020,1233
1021,1200
1022,1200
1023,1217
1024,1233
1025,1200
1026,1217
1027,1167
1028,1183
1029,1200
1030,1183
1031,1200
1032,1200
1033,1167
1034,1167
1035,1117
1036,1117
1037,1083
1038,1083
1039,1033
1040,1050
1041,1017
1042,1050
1043,1133
1044,1133
1045,1233
1046,1233
1047,1317
1048,1317
1049,1333
1050,1333
1051,1367
1052,1350
1053,1333
1054,1350
1055,1317
1056,1333
1057,1233
1058,1233
1059,1150
1060,1150
1061,967
1062,967
1063,867
1064,850
1065,767
1066,767
1067,717
1068,733
1069,750
1070,750
1071,800
1072,800
1073,833
1074,833
1075,817
1076,817
1077,783
1078,800
1079,750
1080,750
1081,717
1082,717
1083,667
1084,667
1085,700
1086,650
1087,633
1088,633
1089,617
1090,617
1091,650
1092,650
1093,600
1094,600
1095,517
1096,533
1097,483
1098,483
1099,467
1100,500
1101,467
1102,483
1103,450
1104,483
1105,433
1106,450
1107,400
1108,417
1109,383
1110,383
1111,417
1112,400
1113,450
1114,467
1115,533
1116,533
1117,767
1118,783
1119,1433
1120,1450
1121,-283
1122,-250
1123,117
1124,133
1125,333
1126,350
1127,383
1128,383
1129,283
1130,267
1131,233
1132,217
1133,267
1134,267
1135,317
1136,317
1137,333
1138,333
1139,283
1140,300
1141,267
1142,267
1143,183
1144,183
1145,83
1146,83
1147,-17
1148,-17
1149,-417
1150,-450
1151,-1233
1152,-1267
1153,-1417
1154,-1350
1155,-283
1156,-250
1157,567
1158,583
1159,783
1160,750
1161,450
1162,450
1163,217
1164,200
1165,100
1166,100
1167,50
1168,50
1169,67
1170,83
1171,133
1172,150
1173,183
1174,167
1175,200
1176,200
1177,250
1178,250
1179,183
1180,167
1181,67
1182,50
1183,-33
1184,-33
1185,17
1186,17
1187,133
1188,133
1189,200
1190,200
1191,367
1192,367
1193,650
1194,667
1195,900
1196,800
1197,167
1198,300
1199,2183
1200,133
1201,2267
1202,2017
1203,-1750
1204,-1817
1205,-2583
1206,-2233
1207,-1000
1208,-950
1209,-433
1210,-417
1211,-500
1212,-533
1213,-417
1214,-417
1215,-283
1216,-283
1217,-350
1218,-317
1219,-383
1220,-383
1221,-333
1222,-333
1223,-250
1224,-233
1225,-217
1226,-217
1227,-333
1228,-333
1229,-283
1230,-267
1231,-217
1232,-250
1233,-183
1234,-217
1235,-267
1236,-217
1237,-317
1238,-333
1239,-1017
1240,-1200
1241,-800
1242,-767
1243,200
1244,217
1245,483
1246,467
1247,133
1248,117
1249,-150
1250,-150
1251,-317
1252,-317
1253,-400
1254,-400
1255,-467
1256,-450
1257,-467
1258,-450
1259,-367
1260,-367
1261,-267
1262,-267
1263,-150
1264,-150
1265,-67
1266,-67
1267,-17
1268,-33
1269,17
1270,-33
1271,-100
1272,-117
1273,-183
1274,-183
1275,-233
1276,-233
1277,-250
1278,-250
1279,-317
1280,-317
1281,-400
1282,-400
1283,-433
1284,-417
1285,-367
1286,-383
1287,-283
1288,-267
1289,-183
1290,-183
1291,-117
1292,-100
1293,-150
1294,-167
1295,-350
1296,-367
1297,-567
1298,-567
1299,-667
1300,-683
1301,-600
1302,-583
1303,-467
1304,-483
1305,-417
1306,-433
1307,-417
1308,-433
1309,-333
1310,-333
1311,-217
1312,-217
1313,-100
1314,-83
1315,-133
1316,-133
1317,-167
1318,-167
1319,-300
1320,-317
1321,-350
1322,-333
1323,-300
1324,-283
1325,-250
1326,-250
1327,-300
1328,-267
1329,-383
1330,-367
1331,-467
1332,-467
1333,-517
1334,-500
1335,-533
1336,-517
1337,-433
1338,-433
1339,-350
1340,-350
1341,-283
1342,-283
1343,-250
1344,-267
1345,-300
1346,-300
1347,-267
1348,-283
1349,-283
1350,-283
1351,-333
1352,-300
1353,-333
1354,-333
1355,-383
1356,-383
1357,-433
1358,-417
1359,-450
1360,-433
1361,-400
1362,-400
1363,-367
1364,-350
1365,-383
1366,-383
1367,-433
1368,-433
1369,-500
1370,-483
1371,-583
1372,-583
1373,-650
1374,-650
1375,-683
1376,-683
1377,-633
1378,-633
1379,-567
1380,-567
1381,-550
1382,-550
1383,-567
1384,-567
1385,-550
1386,-550
1387,-583
1388,-583
1389,-583
1390,-567
1391,-600
1392,-583
1393,-600
1394,-583
1395,-617
1396,-583
1397,-600
1398,-583
1399,-567
1400,-583
1401,-617
1402,-600
1403,-517
1404,-500
1405,-383
1406,-383
1407,-267
1408,-267
1409,-200
1410,-183
1411,-83
1412,-83
1413,33
1414,33
1415,150
1416,150
1417,317
1418,333
1419,683
1420,717
1421,1217
1422,1517
1423,417
1424,267
1425,-1283
1426,-700
1427,-1067
1428,-850
1429,17
1430,50
1431,567
1432,567
1433,300
1434,283
1435,-200
1436,-217
1437,-900
1438,-950
1439,-1967
1440,-2000
1441,-2367
1442,-2333
1443,-1333
1444,-1283
1445,-400
1446,-367
1447,200
1448,217
1449,467
1450,500
1451,-1517
1452,-1550
1453,-1300
1454,-1283
1455,-933
1456,-917
1457,-700
1458,-683
1459,-583
1460,-567
1461,-483
1462,-483
1463,-350
1464,-333
1465,-183
1466,-183
1467,-67
1468,-67
1469,-17
1470,-67
1471,-133
1472,-133
1473,-200
1474,-200
1475,-300
1476,-300
1477,-367
1478,-367
1479,-400
1480,-433
1481,-367
1482,-367
1483,-300
1484,-317
1485,-267
1486,-283
1487,-250
1488,-267
1489,-233
1490,-250
1491,-233
1492,-233
1493,-200
1494,-183
1495,-117
1496,-100
1497,-167
1498,-183
1499,-600
1500,-617
1501,-1017
1502,-1033
1503,-500
1504,-467
1505,133
1506,200
1507,133
1508,83
1509,150
1510,167
1511,283
1512,300
1513,500
1514,500
1515,700
1516,300
1517,1300
1518,1867
1519,-400
1520,2067
1521,-750
1522,-1000
1523,-1667
1524,-1817
1525,-1000
1526,-967
1527,-417
1528,-400
1529,-317
1530,-300
1531,-233
1532,-233
1533,-83
1534,-67
1535,67
1536,83
1537,117
1538,117
1539,183
1540,200
1541,150
1542,150
1543,83
1544,100
1545,50
1546,67
1547,17
1548,17
1549,-167
1550,-167
1551,-333
1552,-333
1553,-383
1554,-350
1555,-383
1556,-367
1557,-333
1558,-350
1559,-283
1560,-283
1561,-217
1562,-233
1563,-183
1564,-183
1565,-133
1566,-150
1567,-100
1568,-83
1569,-117
1570,-100
1571,-67
1572,-67
1573,-100
1574,-67
1575,-83
1576,-67
1577,-83
1578,-83
1579,-167
1580,-167
1581,-233
1582,-250
1583,-317
1584,-300
1585,-283
1586,-300
1587,-333
1588,-333
1589,-283
1590,-300
1591,-250
1592,-250
1593,-267
1594,-250
1595,-283
1596,-250
1597,-283
1598,-283
1599,-317
1600,-317
1601,-267
1602,-267
1603,-167
1604,-167
1605,-50
1606,-50
1607,67
1608,67
1609,217
1610,233
1611,350
1612,350
1613,283
1614,267
1615,200
1616,217
1617,167
1618,167
1619,117
1620,100
1621,67
1622,83
1623,117
1624,100
1625,83
1626,83
1627,50
1628,50
1629,83
1630,83
1631,67
1632,67
1633,33
1634,50
1635,33
1636,33
1637,-17
1638,-17
1639,17
1640,0
1641,-17
1642,17
1643,-17
1644,0
1645,-33
1646,-17
1647,-50
1648,-50
1649,-83
1650,-83
1651,-100
1652,-100
1653,-117
1654,-117
1655,-133
1656,-133
1657,-83
1658,-83
1659,-50
1660,-50
1661,-83
1662,-83
1663,-50
1664,-50
1665,-33
1666,-33
1667,0
1668,0
1669,17
1670,17
1671,50
1672,50
1673,67
1674,67
1675,50
1676,50
1677,0
1678,-17
1679,17
1680,0
1681,-33
1682,-33
1683,-50
1684,-67
1685,-33
1686,-33
1687,33
1688,17
1689,50
1690,33
1691,-17
1692,-17
1693,-100
1694,-100
1695,-133
1696,-133
1697,-183
1698,-200
1699,-167
1700,-167
1701,-83
1702,-100
1703,-50
1704,-67
1705,-17
1706,-50
1707,-133
1708,-133
1709,-300
1710,-300
1711,-333
1712,-317
1713,-350
1714,-317
1715,-250
1716,-250
1717,-217
1718,-233
1719,-133
1720,-117
1721,-350
1722,-367
1723,-1267
1724,-1267
1725,-600
1726,-567
1727,317
1728,350
1729,783
1730,817
1731,700
1732,683
1733,433
1734,417
1735,233
1736,217
1737,117
1738,117
1739,150
1740,133
1741,167
1742,167
1743,167
1744,167
1745,133
1746,117
1747,0
1748,0
1749,-83
1750,-83
1751,-100
1752,-83
1753,-33
1754,-33
1755,17
1756,17
1757,33
1758,17
1759,-100
1760,-100
1761,-217
1762,-217
1763,-267
1764,-267
1765,-317
1766,-317
1767,-283
1768,-317
1769,-300
1770,-317
1771,-283
1772,-300
1773,-267
1774,-283
1775,-350
1776,-317
1777,-350
1778,-333
1779,-267
1780,-267
1781,-250
1782,-250
1783,-283
1784,-300
1785,-267
1786,-300
1787,-267
1788,-283
1789,-200
1790,-217
1791,-183
1792,-200
1793,-267
1794,-267
1795,-733
1796,-767
1797,-1533
1798,-1567
1799,-1333
1800,-1283
1801,-317
1802,-283
1803,450
1804,467
1805,567
1806,467
1807,133
1808,117
1809,-117
1810,-133
1811,-217
1812,-217
1813,-250
1814,-233
1815,-267
1816,-267
1817,-317
1818,-317
1819,-350
1820,-333
1821,-300
1822,-300
1823,-250
1824,-250
1825,-233
1826,-217
1827,-250
1828,-233
1829,-250
1830,-250
1831,-233
1832,-233
1833,-267
1834,-250
1835,-200
1836,-200
1837,-167
1838,-167
1839,17
1840,33
1841,517
1842,567
1843,-1150
1844,-1150
1845,-750
1846,-733
1847,-367
1848,-350
1849,-150
1850,-167
1851,-117
1852,-117
1853,83
1854,100
1855,300
1856,300
1857,417
1858,433
1859,367
1860,333
1861,633
1862,667
1863,1650
1864,1650
1865,-83
1866,-133
1867,-650
1868,-683
1869,67
1870,150
1871,1317
1872,1333
1873,1500
1874,1383
1875,833
1876,817
1877,217
1878,200
1879,-33
1880,-33
1881,33
1882,17
1883,-683
1884,-933
1885,1017
1886,1033
1887,-867
1888,1350
1889,-2117
1890,-1967
1891,-2600
1892,-2483
1893,-1350
1894,-1300
1895,-733
1896,-733
1897,-600
1898,-600
1899,-517
1900,-517
1901,-417
1902,-417
1903,-350
1904,-367
1905,-333
1906,-333
1907,-350
1908,-350
1909,-300
1910,-317
1911,-283
1912,-283
1913,-250
1914,-250
1915,-217
1916,-200
1917,-167
1918,-183
1919,-200
1920,-200
1921,-150
1922,-150
1923,-117
1924,-100
1925,0
1926,0
1927,83
1928,83
1929,133
1930,133
1931,183
1932,183
1933,233
1934,233
1935,300
1936,300
1937,333
1938,317
1939,350
1940,350
1941,383
1942,350
1943,233
1944,233
1945,0
1946,0
1947,-117
1948,-117
1949,-167
1950,-133
1951,-83
1952,-83
1953,0
1954,0
1955,67
1956,83
1957,150
1958,150
1959,217
1960,200
1961,300
1962,283
1963,350
1964,333
1965,367
1966,367
1967,400
1968,400
1969,367
1970,383
1971,300
1972,300
1973,267
1974,267
1975,333
1976,333
1977,400
1978,400
1979,383
1980,417
1981,467
1982,467
1983,433
1984,450
1985,417
1986,417
1987,383
1988,383
1989,433
1990,433
1991,500
1992,500
1993,650
1994,667
1995,800
1996,783
1997,733
1998,767
1999,683
2000,1000
2001,667
2002,583
2003,567
2004,400
2005,417
2006,300
2007,300
2008,333
2009,333
2010,317
2011,317
2012,250
2013,250
2014,217
2015,233
2016,200
2017,233
2018,300
2019,283
2020,333
2021,333
2022,367
2023,367
2024,383
2025,383
2026,350
2027,367
2028,317
2029,333
2030,283
2031,267
2032,317
2033,317
2034,383
2035,400
2036,483
2037,483
2038,583
2039,600
2040,533
2041,533
2042,467
2043,467
2044,433
2045,450
2046,417
2047,450
2048,500
2049,483
2050,567
2051,567
2052,500
2053,500
2054,417
2055,417
2056,333
2057,333
2058,250
2059,267
2060,400
2061,400
2062,533
2063,533
2064,500
2065,533
2066,483
2067,500
2068,467
2069,467
2070,500
2071,467
2072,450
2073,467
2074,450
2075,450
2076,483
2077,500
2078,550
2079,550
2080,600
2081,600
2082,617
2083,583
2084,500
2085,483
2086,367
2087,400
2088,350
2089,350
2090,367
2091,350
2092,367
2093,367
2094,400
2095,383
2096,367
2097,367
2098,333
2099,333
2100,267
2101,267
2102,300
2103,283
2104,350
2105,350
2106,367
2107,350
2108,200
2109,183
2110,-17
2111,-33
2112,-167
2113,-183
2114,-300
2115,-317
2116,-283
2117,-283
2118,-183
2119,-183
2120,-117
2121,-117
2122,-33
2123,-33
2124,50
2125,67
2126,-83
2127,-100
2128,-683
2129,-717
2130,-1250
2131,-1200
2132,-617
2133,-567
2134,250
2135,283
2136,800
2137,833
2138,617
2139,600
2140,267
2141,250
2142,83
2143,67
2144,-17
2145,-17
2146,-50
2147,-50
2148,-67
2149,-83
2150,-50
2151,-33
2152,-67
2153,-33
2154,-100
2155,-100
2156,-133
2157,-100
2158,-133
2159,-150
2160,-167
2161,-150
2162,-250
2163,-283
2164,-200
2165,-267
2166,-900
2167,-950
2168,-1217
2169,-1000
2170,33
2171,67
2172,533
2173,550
2174,483
2175,483
2176,350
2177,333
2178,250
2179,233
2180,250
2181,250
2182,233
2183,233
2184,183
2185,167
2186,133
2187,167
2188,117
2189,150
2190,133
2191,150
2192,400
2193,433
2194,717
2195,717
2196,-1317
2197,-1350
2198,-1200
2199,-1200
2200,-967
2201,-950
2202,-833
2203,-817
2204,-683
2205,-667
2206,-567
2207,-567
2208,-617
2209,-633
2210,-933
2211,-933
2212,-1033
2213,-983
2214,0
2215,50
2216,850
2217,900
2218,767
2219,750
2220,667
2221,683
2222,650
2223,650
2224,483
2225,533
2226,417
2227,417
2228,367
2229,383
2230,333
2231,350
2232,483
2233,483
2234,583
2235,517
2236,-283
2237,-233
2238,1733
2239,17
2240,1767
2241,917
2242,-2100
2243,-1750
2244,-2383
2245,-1983
2246,-1300
2247,-1283
2248,-1033
2249,-1033
2250,-933
2251,-917
2252,-800
2253,-800
2254,-667
2255,-683
2256,-517
2257,-500
2258,-350
2259,-350
2260,-200
2261,-200
2262,-117
2263,-117
2264,-100
2265,-117
2266,-83
2267,-117
2268,-17
2269,-17
2270,133
2271,133
2272,167
2273,117
2274,167
2275,150
2276,200
2277,167
2278,217
2279,217
2280,333
2281,333
2282,583
2283,600
2284,950
2285,967
2286,1567
2287,1600
2288,2383
2289,2467
2290,783
2291,650
2292,-1033
2293,-1583
2294,-900
2295,-833
2296,200
2297,233
2298,517
2299,483
2300,67
2301,33
2302,-433
2303,-450
2304,-783
2305,-800
2306,-983
2307,-1000
2308,-1083
2309,-1083
2310,-1133
2311,-1150
2312,-1200
2313,-1183
2314,-1217
2315,-1200
2316,-1167
2317,-1167
2318,-1050
2319,-1050
2320,-917
2321,-917
2322,-733
2323,-733
2324,-600
2325,-600
2326,-483
2327,-483
2328,-450
2329,-483
2330,-450
2331,-450
2332,-367
2333,-367
2334,-350
2335,-350
2336,-350
2337,-367
2338,-333
2339,-333
2340,-267
2341,-283
2342,-250
2343,-250
2344,-333
2345,-317
2346,-367
2347,-367
2348,-433
2349,-450
2350,-550
2351,-533
2352,-650
2353,-650
2354,-700
2355,-683
2356,-600
2357,-600
2358,-417
2359,-400
2360,-183
2361,-167
2362,-50
2363,-50
2364,-83
2365,-67
2366,-33
2367,-33
2368,-17
2369,-50
2370,0
2371,0
2372,-83
2373,-83
2374,-183
2375,-183
2376,-267
2377,-267
2378,-300
2379,-267
2380,-183
2381,-183
2382,-67
2383,-83
2384,-17
2385,-33
2386,0
2387,0
2388,17
2389,17
2390,-33
2391,-50
2392,0
2393,-17
2394,-33
2395,-33
2396,-50
2397,-67
2398,-33
2399,-50
2400,-150
2401,-150
2402,-183
2403,-183
2404,-150
2405,-150
2406,-117
2407,-117
2408,-67
2409,-83
2410,-50
2411,-67
2412,-50
2413,-33
2414,17
2415,17
2416,50
2417,0
2418,33
2419,17
2420,83
2421,83
2422,233
2423,250
2424,500
2425,500
2426,683
2427,683
2428,717
2429,683
2430,617
2431,600
2432,567
2433,567
2434,517
2435,517
2436,483
2437,483
2438,500
2439,500
2440,467
2441,483
2442,450
2443,467
2444,500
2445,500
2446,567
2447,567
2448,583
2449,583
2450,617
2451,600
2452,617
2453,583
2454,617
2455,617
2456,583
2457,617
2458,683
2459,733
2460,667
2461,650
2462,250
2463,217
2464,-600
2465,-700
2466,-550
2467,-533
2468,233
2469,267
2470,917
2471,950
2472,1117
2473,1083
2474,950
2475,950
2476,833
2477,850
2478,750
2479,750
2480,600
2481,600
2482,500
2483,500
2484,467
2485,467
2486,500
2487,500
2488,550
2489,550
2490,533
2491,550
2492,517
2493,500
2494,467
2495,450
2496,500
2497,500
2498,483
2499,500
2500,467
2501,483
2502,417
2503,417
2504,383
2505,400
2506,367
2507,417
2508,433
2509,450
2510,500
2511,500
2512,550
2513,533
2514,517
2515,533
2516,450
2517,450
2518,350
2519,350
2520,250
2521,250
2522,183
2523,183
2524,100
2525,100
2526,50
2527,50
2528,17
2529,17
2530,33
2531,0
2532,33
2533,17
2534,67
2535,50
2536,150
2537,150
2538,317
2539,333
2540,467
2541,483
2542,583
2543,583
2544,500
2545,500
2546,367
2547,367
2548,250
2549,250
2550,183
2551,183
2552,150
2553,150
2554,167
2555,167
2556,133
2557,133
2558,100
2559,133
2560,100
2561,100
2562,67
2563,83
2564,100
2565,83
2566,117
2567,133
2568,100
2569,133
2570,150
2571,150
2572,117
2573,133
2574,83
2575,100
2576,50
2577,50
2578,-17
2579,-17
2580,-283
2581,-300
2582,-633
2583,-667
2584,-367
2585,-333
2586,383
2587,400
2588,533
2589,483
2590,350
2591,367
2592,417
2593,417
2594,350
2595,350
2596,283
2597,267
2598,100
2599,100
2600,33
2601,17
2602,-33
2603,-33
2604,0
2605,0
2606,33
2607,17
2608,67
2609,67
2610,167
2611,150
2612,183
2613,167
2614,217
2615,217
2616,233
2617,233
2618,267
2619,267
2620,383
2621,383
2622,483
2623,483
2624,717
2625,750
2626,1117
2627,1117
2628,-583
2629,-567
2630,-167
2631,-150
2632,250
2633,250
2634,550
2635,700
2636,333
2637,-300
2638,400
2639,800
2640,-967
2641,1567
2642,-800
2643,-800
2644,-1317
2645,-1333
2646,-617
2647,-583
2648,-233
2649,-233
2650,-283
2651,-283
2652,-367
2653,-367
2654,-450
2655,-433
2656,-417
2657,-400
2658,-300
2659,-283
2660,-167
2661,-167
2662,-100
2663,-100
2664,-33
2665,-33
2666,17
2667,17
2668,33
2669,33
2670,-33
2671,-50
2672,-83
2673,-67
2674,-33
2675,-50
2676,-33
2677,-50
2678,-83
2679,-83
2680,-133
2681,-133
2682,-167
2683,-150
2684,-217
2685,-217
2686,-283
2687,-283
2688,-317
2689,-333
2690,-283
2691,-283
2692,-217
2693,-217
2694,-167
2695,-167
2696,-150
2697,-150
2698,-183
2699,-183
2700,-183
2701,-200
2702,-150
2703,-167
2704,-117
2705,-133
2706,-50
2707,-50
2708,0
2709,0
2710,17
2711,17
2712,0
2713,0
2714,-100
2715,-100
2716,-233
2717,-233
2718,-333
2719,-333
2720,-267
2721,-267
2722,-183
2723,-150
2724,-200
2725,-200
2726,-83
2727,-83
2728,33
2729,33
2730,50
2731,17
2732,-33
2733,-17
2734,17
2735,-17
2736,100
2737,100
2738,283
2739,300
2740,500
2741,517
2742,800
2743,817
2744,1433
2745,1433
2746,1850
2747,1617
2748,-1250
2749,-1417
2750,-1250
2751,-1267
2752,-717
2753,-667
2754,300
2755,333
2756,517
2757,483
2758,183
2759,167
2760,-250
2761,-267
2762,-533
2763,-550
2764,-683
2765,-683
2766,-817
2767,-817
2768,-850
2769,-850
2770,-767
2771,-783
2772,-667
2773,-650
2774,-533
2775,-517
2776,-433
2777,-417
2778,-317
2779,-333
2780,-450
2781,-450
2782,-517
2783,-517
2784,-567
2785,-583
2786,-917
2787,-950
2788,-1717
2789,-1750
2790,-1883
2791,-1767
2792,-683
2793,-650
2794,350
2795,400
2796,850
2797,867
2798,650
2799,633
2800,217
2801,200
2802,-100
2803,-100
2804,-200
2805,-217
2806,-250
2807,-250
2808,-267
2809,-250
2810,-283
2811,-267
2812,-217
2813,-233
2814,-183
2815,-183
2816,-167
2817,-167
2818,-133
2819,-117
2820,-50
2821,-67
2822,-33
2823,-67
2824,-100
2825,-100
2826,-83
2827,-100
2828,-150
2829,-150
2830,-200
2831,-200
2832,-317
2833,-317
2834,-283
2835,-283
2836,-200
2837,-217
2838,-167
2839,-167
2840,-150
2841,-133
2842,-83
2843,-67
2844,17
2845,17
2846,33
2847,17
2848,-33
2849,-50
2850,-150
2851,-167
2852,-350
2853,-350
2854,-417
2855,-417
2856,-367
2857,-367
2858,-250
2859,-250
2860,-167
2861,-167
2862,-267
2863,-267
2864,-333
2865,-333
2866,-383
2867,-367
2868,-400
2869,-400
2870,-450
2871,-467
2872,-433
2873,-433
2874,-400
2875,-400
2876,-383
2877,-383
2878,-333
2879,-333
2880,-283
2881,-283
2882,-217
2883,-217
2884,-167
2885,-167
2886,-100
2887,-100
2888,-17
2889,-17
2890,133
2891,133
2892,333
2893,350
2894,433
2895,417
2896,283
2897,283
2898,117
2899,117
2900,17
2901,17
2902,-67
2903,-67
2904,-167
2905,-183
2906,-567
2907,-583
2908,-783
2909,-767
2910,-117
2911,-83
2912,433
2913,433
2914,283
2915,267
2916,167
2917,183
2918,167
2919,150
2920,33
2921,33
2922,-83
2923,-83
2924,-117
2925,-117
2926,-83
2927,-100
2928,-67
2929,-100
2930,-83
2931,-83
2932,-83
2933,-67
2934,-100
2935,-100
2936,-67
2937,-83
2938,-100
2939,-83
2940,-100
2941,-83
2942,-50
2943,-67
2944,-50
2945,-67
2946,-117
2947,-117
2948,-167
2949,-150
2950,-183
2951,-183
2952,-150
2953,-167
2954,-133
2955,-133
2956,-100
2957,-100
2958,-50
2959,-67
2960,-17
2961,-33
2962,-17
2963,-17
2964,33
2965,33
2966,100
2967,100
2968,150
2969,150
2970,367
2971,400
2972,1000
2973,1017
2974,-567
2975,-550
2976,-183
2977,-167
2978,67
2979,67
2980,217
2981,217
2982,283
2983,283
2984,300
2985,283
2986,350
2987,367
2988,633
2989,650
2990,850
2991,783
2992,83
2993,100
2994,1667
2995,17
2996,1867
2997,1967
2998,-1267
2999,-1133
3000,-1767
3001,1000
3002,-1450
3003,-683
3004,-667
3005,-367
3006,-367
3007,-267
3008,-267
3009,-250
3010,-250
3011,-300
3012,-300
3013,-233
3014,-250
3015,-133
3016,-117
3017,-17
3018,0
3019,133
3020,133
3021,267
3022,283
3023,367
3024,383
3025,283
3026,283
3027,100
3028,83
3029,17
3030,17
3031,50
3032,33
3033,83
3034,83
3035,33
3036,33
3037,-33
3038,-17
3039,-117
3040,-133
3041,-67
3042,-83
3043,-333
3044,-350
3045,-883
3046,-800
3047,67
3048,117
3049,717
3050,750
3051,683
3052,683
3053,450
3054,450
3055,317
3056,317
3057,283
3058,317
3059,333
3060,333
3061,417
3062,400
3063,433
3064,417
3065,433
3066,417
3067,400
3068,400
3069,317
3070,317
3071,183
3072,167
3073,100
3074,100
3075,33
3076,33
3077,67
3078,50
3079,83
3080,67
3081,17
3082,17
3083,-17
3084,0
3085,-100
3086,-83
3087,-150
3088,-133
3089,-150
3090,-150
3091,-200
3092,-200
3093,-217
3094,-200
3095,-100
3096,-100
3097,67
3098,67
3099,200
3100,200
3101,350
3102,350
3103,400
3104,383
3105,350
3106,367
3107,267
3108,250
3109,167
3110,133
3111,250
3112,267
3113,417
3114,417
3115,517
3116,517
3117,567
3118,567
3119,500
3120,500
3121,367
3122,350
3123,167
3124,150
3125,-100
3126,-117
3127,-500
3128,-517
3129,-1200
3130,-1233
3131,-1650
3132,-1667
3133,-733
3134,-667
3135,483
3136,517
3137,1050
3138,1050
3139,717
3140,683
3141,267
3142,250
3143,-50
3144,-67
3145,-250
3146,-267
3147,-383
3148,-400
3149,-350
3150,-350
3151,-383
3152,-383
3153,-250
3154,-233
3155,-100
3156,-83
3157,0
3158,-17
3159,50
3160,50
3161,83
3162,100
3163,167
3164,167
3165,333
3166,350
3167,600
3168,617
3169,1083
3170,1100
3171,1800
3172,1817
3173,2150
3174,1833
3175,-917
3176,-1050
3177,-617
3178,-567
3179,-100
3180,-50
3181,667
3182,733
3183,650
3184,633
3185,200
3186,183
3187,-217
3188,-233
3189,-517
3190,-517
3191,-700
3192,-717
3193,-883
3194,-883
3195,-983
3196,-983
3197,-1083
3198,-1083
3199,-1117
3200,-1083
3201,-967
3202,-967
3203,-850
3204,-850
3205,-733
3206,-733
3207,-667
3208,-667
3209,-617
3210,-617
3211,-583
3212,-583
3213,-633
3214,-633
3215,-600
3216,-600
3217,-567
3218,-567
3219,-450
3220,-467
3221,-400
3222,-400
3223,-300
3224,-300
3225,-150
3226,-150
3227,0
3228,17
3229,150
3230,150
3231,200
3232,183
3233,217
3234,200
3235,150
3236,150
3237,83
3238,83
3239,50
3240,33
3241,83
3242,83
3243,200
3244,217
3245,367
3246,367
3247,433
3248,417
3249,350
3250,333
3251,83
3252,67
3253,-250
3254,-267
3255,-450
3256,-467
3257,-400
3258,-383
3259,-233
3260,-217
3261,-100
3262,-100
3263,-33
3264,-33
3265,0
3266,-17
3267,17
3268,17
3269,-33
3270,-17
3271,-83
3272,-83
3273,-100
3274,-117
3275,-167
3276,-167
3277,-150
3278,-150
3279,-100
3280,-117
3281,-50
3282,-67
3283,-33
3284,-33
3285,-67
3286,-83
3287,-183
3288,-183
3289,-267
3290,-283
3291,-250
3292,-267
3293,-233
3294,-233
3295,-183
3296,-167
3297,-100
3298,-67
3299,-117
3300,-133
3301,-483
3302,-500
3303,-917
3304,-1017
3305,-733
3306,-700
3307,50
3308,67
3309,183
3310,117
3311,-33
3312,-17
3313,33
3314,67
3315,0
3316,-17
3317,-50
3318,-50
3319,-167
3320,-150
3321,-83
3322,-83
3323,33
3324,33
3325,167
3326,167
3327,267
3328,267
3329,250
3330,267
3331,300
3332,317
3333,217
3334,217
3335,150
3336,150
3337,233
3338,250
3339,350
3340,367
3341,650
3342,667
3343,1000
3344,1017
3345,567
3346,550
3347,1800
3348,-150
3349,1533
3350,1617
3351,-1483
3352,-917
3353,-1267
3354,-950
3355,-2017
3356,-1750
3357,-1000
3358,-983
3359,-550
3360,-533
3361,-333
3362,-333
3363,-283
3364,-283
3365,-233
3366,-250
3367,-217
3368,-217
3369,-233
3370,-233
3371,-100
3372,-100
3373,-17
3374,-17
3375,0
3376,0
3377,-83
3378,-83
3379,-183
3380,-183
3381,-233
3382,-233
3383,-250
3384,-233
3385,-167
3386,-150
3387,-50
3388,-50
3389,17
3390,33
3391,83
3392,50
3393,83
3394,67
3395,100
3396,100
3397,83
3398,83
3399,33
3400,33
3401,17
3402,17
3403,100
3404,117
3405,150
3406,150
3407,133
3408,133
3409,50
3410,33
3411,-33
3412,-33
3413,-67
3414,-50
3415,-83
3416,-67
3417,-33
3418,-33
3419,33
3420,17
3421,100
3422,100
3423,250
3424,250
3425,317
3426,300
3427,233
3428,233
3429,200
3430,217
3431,250
3432,233
3433,250
3434,233
3435,200
3436,200
3437,117
3438,133
3439,83
3440,83
3441,50
3442,50
3443,83
3444,83
3445,17
3446,0
3447,-400
3448,-433
3449,-1233
3450,-1267
3451,-1317
3452,-1250
3453,-333
3454,-300
3455,250
3456,267
3457,417
3458,383
3459,83
3460,67
3461,-650
3462,-717
3463,-150
3464,-117
3465,717
3466,750
3467,950
3468,917
3469,583
3470,567
3471,333
3472,333
3473,300
3474,283
3475,333
3476,350
3477,417
3478,417
3479,383
3480,400
3481,350
3482,350
3483,333
3484,333
3485,283
3486,283
3487,183
3488,183
3489,100
3490,83
3491,50
3492,67
3493,100
3494,83
3495,133
3496,133
3497,117
3498,133
3499,150
3500,150
3501,133
3502,150
3503,183
3504,167
3505,183
3506,183
3507,150
3508,150
3509,183
3510,167
3511,200
3512,200
3513,167
3514,167
3515,200
3516,183
3517,167
3518,183
3519,167
3520,183
3521,133
3522,133
3523,100
3524,100
3525,67
3526,83
3527,67
3528,67
3529,50
3530,50
3531,83
3532,83
3533,67
3534,67
3535,50
3536,50
3537,100
3538,100
3539,83
3540,83
3541,67
3542,83
3543,50
3544,50
3545,100
3546,100
3547,133
3548,150
3549,133
3550,150
3551,167
3552,150
3553,83
3554,83
3555,17
3556,0
3557,-67
3558,-83
3559,-133
3560,-100
3561,-133
3562,-133
3563,-150
3564,-133
3565,-150
3566,-133
3567,-150
3568,-117
3569,-150
3570,-133
3571,-167
3572,-167
3573,-133
3574,-150
3575,-67
3576,-67
3577,-17
3578,-17
3579,117
3580,117
3581,183
3582,167
3583,200
3584,200
3585,233
3586,217
3587,167
3588,183
3589,117
3590,117
3591,200
3592,200
3593,283
3594,267
3595,400
3596,383
3597,417
3598,400
3599,350
3600,350
3601,250
3602,250
3603,233
3604,233
3605,350
3606,350
3607,417
3608,417
3609,450
3610,433
3611,517
3612,517
3613,600
3614,617
3615,800
3616,800
3617,1050
3618,1067
3619,1400
3620,1417
3621,1950
3622,1983
3623,2567
3624,2567
3625,267
3626,133
3627,-750
3628,-333
3629,-567
3630,-350
3631,600
3632,633
3633,817
3634,767
3635,283
3636,267
3637,-283
3638,-317
3639,-733
3640,-750
3641,-1033
3642,-1050
3643,-1133
3644,-1133
3645,-1033
3646,-1017
3647,-883
3648,-883
3649,-1067
3650,-1083
3651,-1333
3652,-1350
3653,-900
3654,-867
3655,-133
3656,-117
3657,17
3658,-17
3659,17
3660,33
3661,233
3662,267
3663,217
3664,217
3665,150
3666,133
3667,67
3668,67
3669,50
3670,67
3671,83
3672,83
3673,100
3674,100
3675,117
3676,117
3677,133
3678,133
3679,183
3680,167
3681,250
3682,233
3683,267
3684,267
3685,283
3686,283
3687,250
3688,267
3689,233
3690,250
3691,150
3692,150
3693,17
3694,17
3695,-50
3696,-33
3697,0
3698,17
3699,83
3700,83
3701,117
3702,100
3703,0
3704,0
3705,-67
3706,-83
3707,-117
3708,-100
3709,-67
3710,-83
3711,-50
3712,-50
3713,-67
3714,-33
3715,50
3716,67
3717,183
3718,200
3719,367
3720,383
3721,633
3722,650
3723,1067
3724,1100
3725,1450
3726,1517
3727,1000
3728,1133
3729,3233
3730,1683
3731,333
3732,417
3733,-1933
3734,-2167
3735,-1533
3736,-1483
3737,-733
3738,-717
3739,-517
3740,-517
3741,-433
3742,-433
3743,-350
3744,-383
3745,-317
3746,-317
3747,-350
3748,-333
3749,-367
3750,-350
3751,-283
3752,-283
3753,-183
3754,-167
3755,-33
3756,-33
3757,67
3758,83
3759,117
3760,100
3761,33
3762,33
3763,0
3764,33
3765,100
3766,100
3767,167
3768,167
3769,117
3770,117
3771,83
3772,83
3773,33
3774,33
3775,-17
3776,-17
3777,-100
3778,-117
3779,-150
3780,-150
3781,-133
3782,-133
3783,-117
3784,-133
3785,-183
3786,-183
3787,-167
3788,-167
3789,-117
3790,-117
3791,-83
3792,-100
3793,-83
3794,-100
3795,-83
3796,-83
3797,-33
3798,-33
3799,17
3800,0
3801,50
3802,50
3803,0
3804,-17
3805,-533
3806,-550
3807,-1333
3808,-1383
3809,-1050
3810,-1000
3811,17
3812,50
3813,750
3814,833
3815,717
3816,700
3817,417
3818,417
3819,250
3820,250
3821,183
3822,183
3823,100
3824,83
3825,-17
3826,-17
3827,-117
3828,-117
3829,-50
3830,-50
3831,183
3832,200
3833,367
3834,367
3835,300
3836,283
3837,167
3838,167
3839,-83
3840,-117
3841,-417
3842,-433
3843,-617
3844,-633
3845,-567
3846,-550
3847,-450
3848,-450
3849,-350
3850,-350
3851,-333
3852,-350
3853,-333
3854,-333
3855,-317
3856,-333
3857,-400
3858,-383
3859,-433
3860,-450
3861,-383
3862,-367
3863,-517
3864,-550
3865,-1133
3866,-1083
3867,-533
3868,-483
3869,267
3870,283
3871,433
3872,417
3873,350
3874,333
3875,250
3876,250
3877,217
3878,233
3879,167
3880,183
3881,117
3882,117
3883,50
3884,33
3885,0
3886,0
3887,-83
3888,-83
3889,-133
3890,-150
3891,-200
3892,-183
3893,-250
3894,-250
3895,-267
3896,-250
3897,-283
3898,-283
3899,-350
3900,-350
3901,-383
3902,-367
3903,-383
3904,-383
3905,-367
3906,-367
3907,-283
3908,-283
3909,-183
3910,-183
3911,-67
3912,-67
3913,0
3914,-17
3915,-67
3916,-67
3917,-50
3918,-67
3919,-117
3920,-100
3921,-117
3922,-100
3923,-150
3924,-150
3925,-233
3926,-233
3927,-333
3928,-333
3929,-367
3930,-367
3931,-383
3932,-367
3933,-300
3934,-317
3935,-250
3936,-250
3937,-217
3938,-233
3939,-167
3940,-183
3941,-150
3942,-167
3943,-117
3944,-117
3945,-50
3946,-50
3947,-17
3948,-17
3949,-183
3950,-200
3951,-567
3952,-667
3953,-383
3954,-350
3955,517
3956,550
3957,667
3958,617
3959,433
3960,433
3961,283
3962,283
3963,67
3964,67
3965,-17
3966,-33
3967,-117
3968,-150
3969,-100
3970,-100
3971,0
3972,0
3973,100
3974,100
3975,283
3976,300
3977,500
3978,500
3979,867
3980,883
3981,1533
3982,1567
3983,2167
3984,2150
3985,-433
3986,-500
3987,-1000
3988,-883
3989,-400
3990,-333
3991,700
3992,733
3993,950
3994,900
3995,450
3996,417
3997,-167
3998,-183
3999,-617
4000,-633
4001,-783
4002,1000
4003,-800
4004,-867
4005,-850
4006,-817
4007,-817
4008,-867
4009,-883
4010,-917
4011,-900
4012,-883
4013,-883
4014,-717
4015,-700
4016,-483
4017,-483
4018,-367
4019,-367
4020,-400
4021,-400
4022,-383
4023,-383
4024,-317
4025,-300
4026,-217
4027,-217
4028,-133
4029,-133
4030,-50
4031,-33
4032,83
4033,83
4034,200
4035,200
4036,333
4037,333
4038,417
4039,400
4040,233
4041,233
4042,-67
4043,-67
4044,-233
4045,-267
4046,-217
4047,-200
4048,0
4049,0
4050,167
4051,167
4052,333
4053,350
4054,683
4055,683
4056,950
4057,917
4058,400
4059,1600
4060,-50
4061,-267
4062,1717
4063,1267
4064,-1483
4065,-1350
4066,-1933
4067,-1433
4068,-683
4069,-667
4070,-417
4071,-400
4072,-333
4073,-333
4074,-300
4075,-317
4076,-267
4077,-283
4078,-233
4079,-233
4080,-200
4081,-217
4082,-150
4083,-167
4084,-133
4085,-150
4086,-117
4087,-133
4088,-117
4089,-117
4090,-100
4091,-83
4092,-117
4093,-100
4094,-50
4095,-67
4096,-17
4097,-33
4098,17
4099,17
4100,100
4101,117
4102,200
4103,200
4104,250
4105,250
4106,217
4107,217
4108,67
4109,67
4110,-17
4111,-33
4112,0
4113,-17
4114,-50
4115,-50
4116,-83
4117,-67
4118,-83
4119,-67
4120,-117
4121,-117
4122,-50
4123,-50
4124,50
4125,50
4126,100
4127,67
4128,-267
4129,-300
4130,-883
4131,-917
4132,-683
4133,-650
4134,450
4135,483
4136,1450
4137,1483
4138,2017
4139,2050
4140,200
4141,100
4142,233
4143,233
4144,433
4145,433
4146,500
4147,500
4148,450
4149,450
4150,383
4151,383
4152,367
4153,367
4154,333
4155,333
4156,367
4157,350
4158,333
4159,333
4160,300
4161,300
4162,267
4163,283
4164,217
4165,250
4166,200
4167,217
4168,150
4169,167
4170,117
4171,150
4172,100
4173,100
4174,67
4175,100
4176,67
4177,67
4178,33
4179,33
4180,17
4181,33
4182,17
4183,17
4184,-17
4185,17
4186,0
4187,17
4188,-17
4189,0
4190,-100
4191,-100
4192,-200
4193,-200
4194,-233
4195,-217
4196,-150
4197,-150
4198,0
4199,17
4200,267
4201,283
4202,367
4203,383
4204,417
4205,417
4206,383
4207,400
4208,333
4209,350
4210,317
4211,333
4212,283
4213,283
4214,250
4215,267
4216,217
4217,217
4218,250
4219,250
4220,283
4221,283
4222,267
4223,267
4224,283
4225,283
4226,267
4227,267
4228,167
4229,167
4230,83
4231,67
4232,-67
4233,-67
4234,-183
4235,-200
4236,-283
4237,-300
4238,-333
4239,-333
4240,-367
4241,-350
4242,-300
4243,-300
4244,-267
4245,-267
4246,-233
4247,-250
4248,-217
4249,-233
4250,-200
4251,-217
4252,-183
4253,-200
4254,-250
4255,-250
4256,-333
4257,-317
4258,-350
4259,-317
4260,-300
4261,-300
4262,-233
4263,-250
4264,-283
4265,-300
4266,-267
4267,-283
4268,-233
4269,-250
4270,-200
4271,-200
4272,-167
4273,-183
4274,-167
4275,-200
4276,-250
4277,-250
4278,-283
4279,-267
4280,-233
4281,-250
4282,-183
4283,-183
4284,-117
4285,-117
4286,-100
4287,-117
4288,-50
4289,-83
4290,-50
4291,-83
4292,-50
4293,-67
4294,-17
4295,-17
4296,17
4297,0
4298,-17
4299,0
4300,-50
4301,-50
4302,-83
4303,-83
4304,-133
4305,-133
4306,-117
4307,-117
4308,-150
4309,-133
4310,-167
4311,-167
4312,-217
4313,-217
4314,-283
4315,-283
4316,-317
4317,-300
4318,-267
4319,-283
4320,-267
4321,-267
4322,-233
4323,-250
4324,-283
4325,-283
4326,-333
4327,-317
4328,-300
4329,-300
4330,-350
4331,-350
4332,-433
4333,-433
4334,-583
4335,-583
4336,-667
4337,-617
4338,-733
4339,-767
4340,-1367
4341,-1350
4342,-683
4343,-650
4344,-167
4345,-167
4346,-117
4347,-100
4348,433
4349,450
4350,550
4351,433
4352,117
4353,117
4354,33
4355,67
4356,-50
4357,-50
4358,-217
4359,-217
4360,-433
4361,-433
4362,-550
4363,-550
4364,-650
4365,-650
4366,-767
4367,-767
4368,-717
4369,-717
4370,-617
4371,-617
4372,-483
4373,-483
4374,-417
4375,-417
4376,-450
4377,-417
4378,-400
4379,-400
4380,-417
4381,-400
4382,-450
4383,-433
4384,-467
4385,-467
4386,-550
4387,-550
4388,-617
4389,-633
4390,-750
4391,-750
4392,-833
4393,-833
4394,-800
4395,-800
4396,-733
4397,-733
4398,-700
4399,-700
4400,-600
4401,-600
4402,-433
4403,-417
4404,-183
4405,-183
4406,17
4407,50
4408,-17
4409,-17
4410,0
4411,0
4412,-67
4413,-67
4414,-167
4415,-167
4416,-400
4417,-400
4418,-483
4419,-483
4420,-400
4421,-400
4422,-217
4423,-217
4424,-67
4425,-67
4426,83
4427,83
4428,350
4429,367
4430,633
4431,650
4432,17
4433,-283
4434,1750
4435,1783
4436,-17
4437,2283
4438,-1567
4439,-1517
4440,-2317
4441,-2233
4442,-1183
4443,-1150
4444,-517
4445,-500
4446,-200
4447,-167
4448,-233
4449,-233
4450,-483
4451,-483
4452,-700
4453,-700
4454,-800
4455,-733
4456,-517
4457,-500
4458,-317
4459,-317
4460,-217
4461,-217
4462,-617
4463,-650
4464,-1383
4465,-1417
4466,-1167
4467,-1133
4468,183
4469,233
4470,1333
4471,1367
4472,2017
4473,1917
4474,2133
4475,2083
4476,-733
4477,-1200
4478,-400
4479,-367
4480,183
4481,200
4482,700
4483,783
4484,683
4485,667
4486,167
4487,150
4488,-367
4489,-383
4490,-767
4491,-783
4492,-967
4493,-967
4494,-1050
4495,-1033
4496,-983
4497,-983
4498,-867
4499,-850
4500,-783
4501,-783
4502,-750
4503,-750
4504,-683
4505,-667
4506,-617
4507,-617
4508,-500
4509,-500
4510,-433
4511,-450
4512,-500
4513,-517
4514,-667
4515,-683
4516,-733
4517,-733
4518,-767
4519,-767
4520,-800
4521,-783
4522,-683
4523,-683
4524,-583
4525,-583
4526,-500
4527,-500
4528,-417
4529,-417
4530,-333
4531,-333
4532,-233
4533,-233
4534,-133
4535,-133
4536,-50
4537,-50
4538,67
4539,67
4540,133
4541,150
4542,467
4543,500
4544,1133
4545,1083
4546,-750
4547,-717
4548,-333
4549,-300
4550,-17
4551,0
4552,183
4553,167
4554,200
4555,200
4556,167
4557,150
4558,33
4559,33
4560,-33
4561,-17
4562,-67
4563,-50
4564,0
4565,0
4566,217
4567,233
4568,167
4569,150
4570,50
4571,33
4572,-117
4573,-133
4574,-233
4575,-250
4576,-317
4577,-317
4578,-333
4579,-333
4580,-317
4581,-317
4582,-350
4583,-317
4584,-350
4585,-333
4586,-350
4587,-333
4588,-283
4589,-283
4590,-167
4591,-167
4592,-67
4593,-50
4594,33
4595,50
4596,17
4597,17
4598,-50
4599,-33
4600,-50
4601,-33
4602,17
4603,0
4604,50
4605,33
4606,67
4607,33
4608,67
4609,17
4610,50
4611,33
4612,83
4613,50
4614,83
4615,50
4616,83
4617,50
4618,67
4619,50
4620,33
4621,33
4622,-33
4623,-33
4624,-117
4625,-100
4626,-150
4627,-133
4628,-217
4629,-200
4630,-250
4631,-233
4632,-267
4633,-267
4634,-317
4635,-317
4636,-367
4637,-367
4638,-317
4639,-317
4640,-267
4641,-283
4642,-233
4643,-233
4644,-150
4645,-183
4646,-133
4647,-150
4648,-117
4649,-133
4650,-83
4651,-83
4652,-117
4653,-117
4654,-150
4655,-117
4656,-183
4657,-183
4658,-200
4659,-217
4660,-267
4661,-250
4662,-300
4663,-300
4664,-350
4665,-367
4666,-333
4667,-350
4668,-333
4669,-333
4670,-367
4671,-350
4672,-383
4673,-383
4674,-417
4675,-417
4676,-433
4677,-433
4678,-417
4679,-417
4680,-383
4681,-383
4682,-350
4683,-367
4684,-383
4685,-383
4686,-433
4687,-433
4688,-467
4689,-467
4690,-433
4691,-467
4692,-433
4693,-450
4694,-417
4695,-400
4696,-417
4697,-400
4698,-383
4699,-383
4700,-433
4701,-400
4702,-433
4703,-433
4704,-450
4705,-433
4706,-417
4707,-417
4708,-317
4709,-317
4710,-233
4711,-267
4712,-233
4713,-217
4714,-250
4715,-250
4716,-333
4717,-350
4718,-417
4719,-400
4720,-450
4721,-450
4722,-467
4723,-483
4724,-433
4725,-417
4726,-483
4727,-483
4728,-667
4729,-683
4730,-1083
4731,-1083
4732,-1200
4733,-1100
4734,-200
4735,-150
4736,217
4737,217
4738,50
4739,0
4740,67
4741,67
4742,150
4743,133
4744,167
4745,167
4746,217
4747,183
4748,167
4749,183
4750,233
4751,250
4752,283
4753,283
4754,317
4755,317
4756,250
4757,250
4758,183
4759,167
4760,50
4761,50
4762,-67
4763,-83
4764,-167
4765,-167
4766,-183
4767,-183
4768,-83
4769,-83
4770,17
4771,17
4772,50
4773,33
4774,67
4775,67
4776,133
4777,133
4778,250
4779,250
4780,367
4781,383
4782,550
4783,567
4784,850
4785,850
4786,1150
4787,1333
4788,717
4789,550
4790,2867
4791,217
4792,2150
4793,3283
4794,-1483
4795,-1317
4796,-2183
4797,-2100
4798,-1183
4799,-1167
4800,-733
4801,-733
4802,-683
4803,-683
4804,-550
4805,-550
4806,-883
4807,-917
4808,-1450
4809,-1333
4810,-183
4811,-150
4812,733
4813,750
4814,917
4815,917
4816,867
4817,867
4818,667
4819,667
4820,417
4821,400
4822,-267
4823,-317
4824,-1017
4825,-1017
4826,-283
4827,-233
4828,667
4829,700
4830,1283
4831,1300
4832,1167
4833,1167
4834,900
4835,883
4836,683
4837,683
4838,717
4839,717
4840,767
4841,783
4842,750
4843,767
4844,683
4845,683
4846,500
4847,483
4848,350
4849,333
4850,267
4851,267
4852,333
4853,333
4854,417
4855,433
4856,483
4857,500
4858,517
4859,517
4860,467
4861,483
4862,517
4863,500
4864,567
4865,567
4866,683
4867,667
4868,717
4869,717
4870,650
4871,650
4872,583
4873,583
4874,600
4875,600
4876,633
4877,633
4878,617
4879,633
4880,617
4881,617
4882,633
4883,650
4884,617
4885,633
4886,600
4887,617
4888,650
4889,650
4890,683
4891,683
4892,650
4893,633
4894,583
4895,583
4896,517
4897,533
4898,500
4899,500
4900,483
4901,467
4902,483
4903,483
4904,450
4905,483
4906,517
4907,517
4908,550
4909,550
4910,533
4911,517
4912,550
4913,550
4914,517
4915,533
4916,500
4917,517
4918,450
4919,450
4920,350
4921,350
4922,300
4923,283
4924,300
4925,283
4926,317
4927,317
4928,300
4929,300
4930,333
4931,350
4932,317
4933,317
4934,367
4935,333
4936,383
4937,383
4938,400
4939,383
4940,333
4941,317
4942,433
4943,450
4944,950
4945,983
4946,1383
4947,917
4948,-717
4949,-667
4950,-333
4951,-317
4952,-50
4953,-50
4954,200
4955,217
4956,550
4957,567
4958,1133
4959,1150
4960,2017
4961,1950
4962,2483
4963,2417
4964,167
4965,217
4966,1617
4967,1433
4968,1750
4969,1800
4970,2267
4971,2283
4972,2000
4973,1967
4974,1133
4975,1100
4976,200
4977,167
4978,-533
4979,-550
4980,-917
4981,-933
4982,-1117
4983,-1133
4984,-1183
4985,-1200
4986,-1233
4987,-1233
4988,-1300
4989,-1300
4990,-1233
4991,-1233
4992,-1200
4993,-1183
4994,-1133
4995,-1117
4996,-1050
4997,-1050
4998,-933
4999,-933
5000,-833
5001,-833
5002,-700
5003,1000
5004,-683
5005,-600
5006,-600
5007,-467
5008,-467
5009,-383
5010,-383
5011,-317
5012,-317
5013,-200
5014,-200
5015,-100
5016,-117
5017,-67
5018,-67
5019,-33
5020,-33
5021,-100
5022,-117
5023,-150
5024,-167
5025,-117
5026,-133
5027,-83
5028,-100
5029,-67
5030,-83
5031,-150
5032,-133
5033,-183
5034,-167
5035,-217
5036,-217
5037,-267
5038,-283
5039,-350
5040,-350
5041,-433
5042,-433
5043,-517
5044,-500
5045,-533
5046,-500
5047,-533
5048,-500
5049,-433
5050,-433
5051,-367
5052,-367
5053,-283
5054,-283
5055,-367
5056,-367
5057,-450
5058,-467
5059,-533
5060,-517
5061,-567
5062,-567
5063,-517
5064,-517
5065,-383
5066,-367
5067,-200
5068,-200
5069,0
5070,0
5071,50
5072,17
5073,-317
5074,-333
5075,-850
5076,-950
5077,-683
5078,-633
5079,67
5080,133
5081,33
5082,17
5083,-183
5084,-183
5085,-150
5086,-167
5087,-283
5088,-300
5089,-383
5090,-367
5091,-467
5092,-450
5093,-500
5094,-483
5095,-517
5096,-517
5097,-550
5098,-550
5099,-567
5100,-583
5101,-550
5102,-550
5103,-517
5104,-517
5105,-550
5106,-517
5107,-533
5108,-517
5109,-500
5110,-517
5111,-533
5112,-550
5113,-600
5114,-600
5115,-633
5116,-633
5117,-717
5118,-700
5119,-750
5120,-750
5121,-817
5122,-833
5123,-883
5124,-883
5125,-950
5126,-933
5127,-900
5128,-900
5129,-933
5130,-917
5131,-967
5132,-950
5133,-933
5134,-917
5135,-983
5136,-983
5137,-933
5138,-967
5139,-917
5140,-917
5141,-850
5142,-867
5143,-783
5144,-767
5145,-517
5146,-500
5147,-67
5148,-633
5149,1333
5150,2267
5151,-350
5152,2483
5153,-2117
5154,-2250
5155,-3317
5156,-3333
5157,-2550
5158,-2517
5159,-1917
5160,-1817
5161,-1950
5162,-1967
5163,-2667
5164,-2700
5165,-3167
5166,-3100
5167,-2133
5168,-2067
5169,-1067
5170,-1033
5171,-433
5172,-417
5173,-600
5174,-617
5175,-950
5176,-967
5177,-1117
5178,-1117
5179,-1150
5180,-1150
5181,-1133
5182,-1133
5183,-1183
5184,-1200
5185,-1167
5186,-1183
5187,-1233
5188,-1217
5189,-1183
5190,-1183
5191,-1150
5192,-1150
5193,-1083
5194,-1100
5195,-1017
5196,-1017
5197,-867
5198,-850
5199,-800
5200,-800
5201,-850
5202,-850
5203,-867
5204,-833
5205,-850
5206,-833
5207,-917
5208,-900
5209,-983
5210,-983
5211,-1033
5212,-1000
5213,-1033
5214,-1050
5215,-1017
5216,-1017
5217,-967
5218,-950
5219,-983
5220,-967
5221,-1017
5222,-1000
5223,-1050
5224,-1000
5225,-1267
5226,-1283
5227,-2167
5228,-2167
5229,-1333
5230,-1267
5231,-217
5232,-183
5233,67
5234,67
5235,-117
5236,-117
5237,-317
5238,-317
5239,-433
5240,-433
5241,-483
5242,-483
5243,-517
5244,-517
5245,-550
5246,-550
5247,-583
5248,-583
5249,-533
5250,-567
5251,-533
5252,-533
5253,-450
5254,-433
5255,-367
5256,-367
5257,-350
5258,-383
5259,-517
5260,-517
5261,-650
5262,-650
5263,-733
5264,-750
5265,-717
5266,-717
5267,-567
5268,-567
5269,-400
5270,-383
5271,-200
5272,-183
5273,-50
5274,-50
5275,17
5276,0
5277,33
5278,17
5279,50
5280,33
5281,117
5282,133
5283,250
5284,217
5285,250
5286,217
5287,117
5288,100
5289,-67
5290,-83
5291,-200
5292,-200
5293,-283
5294,-283
5295,-233
5296,-233
5297,-167
5298,-150
5299,-117
5300,-100
5301,50
5302,50
5303,167
5304,183
5305,217
5306,217
5307,200
5308,200
5309,167
5310,150
5311,183
5312,167
5313,233
5314,233
5315,300
5316,300
5317,317
5318,317
5319,267
5320,267
5321,233
5322,250
5323,283
5324,283
5325,300
5326,317
5327,283
5328,283
5329,250
5330,267
5331,317
5332,317
5333,367
5334,367
5335,500
5336,500
5337,650
5338,633
5339,683
5340,667
5341,633
5342,633
5343,667
5344,650
5345,700
5346,700
5347,817
5348,833
5349,933
5350,933
5351,967
5352,950
5353,933
5354,933
5355,883
5356,900
5357,850
5358,850
5359,817
5360,817
5361,800
5362,783
5363,833
5364,817
5365,800
5366,783
5367,750
5368,767
5369,733
5370,733
5371,800
5372,800
5373,917
5374,917
5375,967
5376,950
5377,983
5378,950
5379,1017
5380,1033
5381,1200
5382,1217
5383,1750
5384,2167
5385,1017
5386,833
5387,83
5388,167
5389,533
5390,550
5391,783
5392,783
5393,883
5394,900
5395,950
5396,933
5397,1000
5398,983
5399,1083
5400,1100
5401,1067
5402,1117
5403,1200
5404,1200
5405,1233
5406,1200
5407,1233
5408,1217
5409,1200
5410,1217
5411,1283
5412,1283
5413,1383
5414,1383
5415,1567
5416,1567
5417,1783
5418,1800
5419,2200
5420,2217
5421,2783
5422,2600
5423,3133
5424,1900
5425,3400
5426,3517
5427,1250
5428,1817
5429,2700
5430,2717
5431,2933
5432,2800
5433,2117
5434,2083
5435,1133
5436,1100
5437,350
5438,317
5439,-17
5440,-17
5441,-133
5442,-133
5443,-217
5444,-200
5445,-150
5446,-167
5447,-100
5448,-100
5449,-317
5450,-350
5451,-883
5452,-900
5453,-1133
5454,-1050
5455,-250
5456,-217
5457,33
5458,50
5459,33
5460,17
5461,267
5462,267
5463,417
5464,367
5465,417
5466,417
5467,500
5468,500
5469,567
5470,567
5471,633
5472,617
5473,567
5474,567
5475,517
5476,533
5477,550
5478,567
5479,533
5480,533
5481,400
5482,400
5483,300
5484,333
5485,367
5486,367
5487,400
5488,400
5489,450
5490,450
5491,383
5492,367
5493,267
5494,267
5495,233
5496,267
5497,417
5498,417
5499,600
5500,617
5501,800
5502,800
5503,950
5504,950
5505,1083
5506,1083
5507,1167
5508,1183
5509,1317
5510,1333
5511,1417
5512,1333
5513,617
5514,533
5515,-1083
5516,-1067
5517,4183
5518,1900
5519,4600
5520,4417
5521,-200
5522,0
5523,-983
5524,-883
5525,-317
5526,-317
5527,-100
5528,-100
5529,-17
5530,-17
5531,50
5532,33
5533,117
5534,117
5535,167
5536,167
5537,217
5538,217
5539,233
5540,233
5541,267
5542,267
5543,250
5544,267
5545,300
5546,300
5547,267
5548,267
5549,317
5550,300
5551,267
5552,283
5553,217
5554,217
5555,233
5556,217
5557,250
5558,233
5559,267
5560,250
5561,283
5562,283
5563,300
5564,283
5565,267
5566,267
5567,233
5568,233
5569,267
5570,250
5571,283
5572,267
5573,300
5574,283
5575,317
5576,317
5577,367
5578,367
5579,333
5580,350
5581,333
5582,350
5583,317
5584,317
5585,333
5586,333
5587,350
5588,317
5589,383
5590,383
5591,350
5592,367
5593,333
5594,333
5595,300
5596,317
5597,283
5598,300
5599,233
5600,233
5601,167
5602,167
5603,50
5604,50
5605,0
5606,17
5607,33
5608,33
5609,0
5610,0
5611,-17
5612,-33
5613,17
5614,17
5615,-33
5616,-33
5617,0
5618,-17
5619,0
5620,0
5621,83
5622,67
5623,167
5624,167
5625,300
5626,300
5627,400
5628,383
5629,333
5630,333
5631,300
5632,300
5633,333
5634,333
5635,317
5636,300
5637,333
5638,317
5639,350
5640,350
5641,433
5642,433
5643,500
5644,517
5645,467
5646,467
5647,283
5648,283
5649,33
5650,33
5651,-117
5652,-117
5653,-150
5654,-133
5655,-33
5656,-33
5657,33
5658,17
5659,67
5660,83
5661,33
5662,50
5663,0
5664,0
5665,-100
5666,-33
5667,-117
5668,-117
5669,-833
5670,-867
5671,-1233
5672,-950
5673,167
5674,217
5675,867
5676,900
5677,850
5678,833
5679,700
5680,700
5681,600
5682,583
5683,467
5684,467
5685,250
5686,250
5687,67
5688,50
5689,-50
5690,-83
5691,-33
5692,-33
5693,117
5694,117
5695,250
5696,250
5697,300
5698,300
5699,267
5700,267
5701,333
5702,317
5703,383
5704,367
5705,400
5706,367
5707,417
5708,433
5709,400
5710,400
5711,250
5712,233
5713,0
5714,0
5715,-133
5716,-150
5717,-133
5718,-150
5719,0
5720,17
5721,233
5722,233
5723,283
5724,267
5725,200
5726,200
5727,150
5728,150
5729,117
5730,117
5731,133
5732,117
5733,83
5734,50
5735,83
5736,83
5737,50
5738,67
5739,83
5740,83
5741,117
5742,83
5743,100
5744,83
5745,100
5746,100
5747,133
5748,133
5749,150
5750,150
5751,100
5752,117
5753,150
5754,150
5755,217
5756,200
5757,250
5758,233
5759,167
5760,167
5761,83
5762,67
5763,0
5764,0
5765,33
5766,33
5767,167
5768,167
5769,250
5770,250
5771,317
5772,317
5773,417
5774,417
5775,917
5776,1150
5777,-767
5778,-817
5779,-567
5780,-533
5781,-150
5782,-150
5783,67
5784,67
5785,117
5786,133
5787,117
5788,117
5789,83
5790,83
5791,117
5792,100
5793,133
5794,133
5795,117
5796,117
5797,83
5798,83
5799,-50
5800,-50
5801,-100
5802,-100
5803,-50
5804,-33
5805,67
5806,67
5807,183
5808,183
5809,117
5810,117
5811,100
5812,83
5813,0
5814,17
5815,-33
5816,-33
5817,-17
5818,-50
5819,-100
5820,-83
5821,-150
5822,-133
5823,-150
5824,-150
5825,-133
5826,-150
5827,-167
5828,-150
5829,-183
5830,-200
5831,-167
5832,-167
5833,-200
5834,-200
5835,-167
5836,-183
5837,-117
5838,-100
5839,-50
5840,-50
5841,-250
5842,-250
5843,-717
5844,-733
5845,-933
5846,-850
5847,-33
5848,17
5849,300
5850,267
5851,33
5852,17
5853,117
5854,133
5855,267
5856,267
5857,183
5858,217
5859,267
5860,283
5861,200
5862,183
5863,-283
5864,-317
5865,-1050
5866,-1050
5867,-350
5868,-300
5869,1217
5870,1283
5871,2767
5872,2700
5873,3217
5874,3100
5875,967
5876,1083
5877,2950
5878,2433
5879,2783
5880,2800
5881,3050
5882,3050
5883,1500
5884,1400
5885,4367
5886,2733
5887,200
5888,2817
5889,-2617
5890,-2650
5891,-3967
5892,-3833
5893,-2933
5894,-2917
5895,-2383
5896,-2367
5897,-2017
5898,-2017
5899,-1750
5900,-1750
5901,-1550
5902,-1550
5903,-1350
5904,-1333
5905,-1133
5906,-1133
5907,-1000
5908,-1000
5909,-933
5910,-933
5911,-817
5912,-833
5913,-783
5914,-817
5915,-883
5916,-883
5917,-950
5918,-950
5919,-867
5920,-867
5921,-817
5922,-817
5923,-683
5924,-683
5925,-533
5926,-533
5927,-417
5928,-417
5929,-350
5930,-350
5931,-367
5932,-350
5933,-317
5934,-317
5935,-300
5936,-300
5937,-250
5938,-267
5939,-233
5940,-217
5941,-150
5942,-150
5943,-117
5944,-117
5945,-133
5946,-133
5947,-167
5948,-150
5949,-167
5950,-150
5951,-67
5952,-83
5953,17
5954,17
5955,50
5956,50
5957,67
5958,67
5959,33
5960,33
5961,0
5962,0
5963,50
5964,33
5965,117
5966,117
5967,167
5968,183
5969,150
5970,150
5971,167
5972,167
5973,83
5974,83
5975,17
5976,17
5977,-50
5978,-50
5979,-33
5980,-33
5981,-67
5982,-50
5983,-117
5984,-117
5985,-100
5986,-100
5987,-150
5988,-133
5989,-167
5990,-150
5991,-217
5992,-200
5993,-100
5994,-100
5995,-17
5996,-17
5997,17
5998,17
5999,-17
6000,-33
6001,-83
6002,-117
6003,-67
6004,1000
6005,-67
6006,-100
6007,-83
6008,-133
6009,-133
6010,-233
6011,-233
6012,-333
6013,-333
6014,-383
6015,-383
6016,-417
6017,-433
6018,-383
6019,-400
6020,-283
6021,-267
6022,-117
6023,-117
6024,83
6025,83
6026,167
6027,117
6028,150
6029,167
6030,300
6031,300
6032,483
6033,500
6034,583
6035,567
6036,400
6037,383
6038,83
6039,67
6040,-133
6041,-150
6042,-183
6043,-183
6044,-167
6045,-150
6046,-50
6047,-50
6048,0
6049,-17
6050,100
6051,100
6052,200
6053,200
6054,300
6055,267
6056,-350
6057,-400
6058,-933
6059,-750
6060,333
6061,367
6062,983
6063,1000
6064,867
6065,850
6066,617
6067,600
6068,433
6069,417
6070,350
6071,350
6072,333
6073,367
6074,333
6075,317
6076,283
6077,283
6078,200
6079,183
6080,150
6081,150
6082,100
6083,100
6084,133
6085,150
6086,217
6087,233
6088,300
6089,267
6090,333
6091,317
6092,350
6093,350
6094,317
6095,300
6096,317
6097,317
6098,283
6099,300
6100,267
6101,283
6102,250
6103,267
6104,217
6105,217
6106,150
6107,167
6108,83
6109,83
6110,17
6111,0
6112,33
6113,33
6114,0
6115,33
6116,0
6117,17
6118,-17
6119,-33
6120,17
6121,17
6122,50
6123,17
6124,100
6125,83
6126,117
6127,117
6128,167
6129,150
6130,200
6131,200
6132,183
6133,183
6134,283
6135,300
6136,417
6137,433
6138,517
6139,533
6140,900
6141,933
6142,1483
6143,1400
6144,-583
6145,-583
6146,-233
6147,-217
6148,67
6149,83
6150,300
6151,300
6152,383
6153,400
6154,433
6155,433
6156,367
6157,367
6158,167
6159,150
6160,-33
6161,-50
6162,-150
6163,-183
6164,-133
6165,-133
6166,-67
6167,-50
6168,-17
6169,-17
6170,83
6171,83
6172,167
6173,167
6174,217
6175,183
6176,217
6177,183
6178,217
6179,217
6180,200
6181,217
6182,233
6183,217
6184,283
6185,267
6186,300
6187,300
6188,367
6189,367
6190,400
6191,383
6192,367
6193,367
6194,333
6195,350
6196,267
6197,267
6198,250
6199,233
6200,167
6201,167
6202,100
6203,100
6204,-167
6205,-183
6206,-950
6207,-1000
6208,-1450
6209,-1350
6210,-350
6211,-300
6212,650
6213,683
6214,1217
6215,1200
6216,850
6217,817
6218,50
6219,17
6220,-450
6221,-500
6222,-50
6223,-17
6224,600
6225,633
6226,550
6227,533
6228,400
6229,417
6230,383
6231,367
6232,200
6233,200
6234,133
6235,133
6236,100
6237,100
6238,117
6239,100
6240,117
6241,83
6242,117
6243,117
6244,217
6245,217
6246,300
6247,300
6248,333
6249,317
6250,250
6251,267
6252,200
6253,200
6254,233
6255,233
6256,267
6257,267
6258,300
6259,317
6260,383
6261,383
6262,683
6263,700
6264,1050
6265,1050
6266,133
6267,117
6268,3917
6269,500
6270,2717
6271,3517
6272,-1433
6273,-1450
6274,-2483
6275,-2367
6276,-1550
6277,-1517
6278,-1050
6279,-1050
6280,-883
6281,-883
6282,-750
6283,-767
6284,-633
6285,-633
6286,-483
6287,-483
6288,-383
6289,-383
6290,-300
6291,-317
6292,-267
6293,-250
6294,-267
6295,-250
6296,-150
6297,-150
6298,-100
6299,-100
6300,-67
6301,-50
6302,-83
6303,-83
6304,-33
6305,-33
6306,17
6307,33
6308,0
6309,0
6310,-33
6311,-33
6312,-100
6313,-100
6314,-167
6315,-167
6316,-283
6317,-283
6318,-367
6319,-367
6320,-433
6321,-417
6322,-433
6323,-417
6324,-433
6325,-417
6326,-450
6327,-417
6328,-467
6329,-467
6330,-483
6331,-517
6332,-483
6333,-500
6334,-483
6335,-500
6336,-467
6337,-500
6338,-450
6339,-433
6340,-300
6341,-283
6342,-217
6343,-217
6344,-250
6345,-217
6346,-233
6347,-217
6348,-233
6349,-217
6350,-67
6351,-67
6352,100
6353,100
6354,333
6355,367
6356,817
6357,867
6358,1217
6359,1300
6360,-517
6361,-1050
6362,517
6363,633
6364,2200
6365,1750
6366,1600
6367,1600
6368,1183
6369,1167
6370,317
6371,267
6372,-600
6373,-633
6374,-1283
6375,-1300
6376,-1667
6377,-1683
6378,-1800
6379,-1817
6380,-1850
6381,-1817
6382,-1767
6383,-1783
6384,-1683
6385,-1683
6386,-1633
6387,-1633
6388,-1600
6389,-1600
6390,-1567
6391,-1567
6392,-1483
6393,-1483
6394,-1450
6395,-1467
6396,-1500
6397,-1517
6398,-1450
6399,-1450
6400,-1233
6401,-1217
6402,-1033
6403,-1017
6404,-783
6405,-783
6406,-483
6407,-467
6408,-383
6409,-367
6410,-450
6411,-450
6412,-600
6413,-600
6414,-700
6415,-700
6416,-717
6417,-700
6418,-583
6419,-567
6420,-317
6421,-300
6422,-283
6423,-300
6424,-417
6425,-417
6426,-533
6427,-533
6428,-500
6429,-500
6430,-433
6431,-433
6432,-350
6433,-367
6434,-267
6435,-267
6436,-233
6437,-217
6438,-200
6439,-200
6440,-183
6441,-183
6442,-150
6443,-167
6444,-100
6445,-117
6446,-133
6447,-133
6448,-117
6449,-133
6450,-150
6451,-133
6452,-117
6453,-100
6454,-117
6455,-117
6456,-133
6457,-133
6458,-150
6459,-133
6460,-150
6461,-133
6462,-117
6463,-150
6464,-117
6465,-133
6466,-83
6467,-83
6468,-50
6469,-50
6470,-17
6471,-33
6472,0
6473,-17
6474,-50
6475,-17
6476,0
6477,-17
6478,17
6479,17
6480,33
6481,33
6482,-17
6483,0
6484,-50
6485,-67
6486,-100
6487,-17
6488,-233
6489,-267
6490,-1150
6491,-1150
6492,-333
6493,-283
6494,817
6495,833
6496,1017
6497,983
6498,617
6499,600
6500,233
6501,200
6502,-50
6503,-50
6504,-200
6505,-200
6506,-267
6507,-267
6508,-250
6509,-283
6510,-200
6511,-183
6512,-150
6513,-150
6514,-200
6515,-200
6516,-217
6517,-200
6518,-150
6519,-150
6520,-17
6521,-17
6522,83
6523,67
6524,17
6525,17
6526,-17
6527,-17
6528,-83
6529,-50
6530,-83
6531,-33
6532,17
6533,33
6534,100
6535,100
6536,167
6537,183
6538,217
6539,233
6540,183
6541,200
6542,150
6543,183
6544,233
6545,267
6546,200
6547,183
6548,-33
6549,-67
6550,-1867
6551,-2283
6552,-1233
6553,-1150
6554,383
6555,433
6556,1233
6557,1283
6558,1150
6559,1133
6560,750
6561,733
6562,333
6563,317
6564,-17
6565,-17
6566,-150
6567,-133
6568,-67
6569,-67
6570,17
6571,17
6572,67
6573,67
6574,83
6575,83
6576,0
6577,0
6578,-83
6579,-83
6580,-117
6581,-117
6582,-100
6583,-117
6584,-83
6585,-117
6586,-67
6587,-67
6588,-150
6589,-167
6590,-583
6591,-600
6592,-850
6593,-867
6594,-233
6595,-200
6596,383
6597,433
6598,300
6599,300
6600,117
6601,133
6602,150
6603,150
6604,-17
6605,-33
6606,0
6607,-33
6608,-17
6609,-17
6610,50
6611,33
6612,67
6613,50
6614,0
6615,0
6616,-67
6617,-67
6618,-133
6619,-133
6620,-167
6621,-167
6622,-200
6623,-183
6624,-200
6625,-183
6626,-200
6627,-200
6628,-167
6629,-200
6630,-167
6631,-183
6632,-200
6633,-183
6634,-167
6635,-183
6636,-167
6637,-167
6638,-183
6639,-150
6640,-200
6641,-183
6642,-233
6643,-233
6644,-250
6645,-233
6646,-267
6647,-267
6648,-233
6649,-233
6650,-267
6651,-233
6652,-250
6653,-250
6654,-317
6655,-317
6656,-333
6657,-333
6658,-350
6659,-350
6660,-383
6661,-367
6662,-333
6663,-333
6664,-250
6665,-250
6666,-183
6667,-200
6668,-117
6669,-117
6670,-67
6671,-67
6672,-33
6673,-50
6674,0
6675,0
6676,83
6677,67
6678,200
6679,200
6680,433
6681,450
6682,800
6683,917
6684,200
6685,-350
6686,2667
6687,4650
6688,1400
6689,3550
6690,-1417
6691,-1567
6692,-2767
6693,-2933
6694,-2250
6695,-2217
6696,-1533
6697,-1517
6698,-1183
6699,-1167
6700,-1083
6701,-1083
6702,-1017
6703,-1033
6704,-1100
6705,-1117
6706,-1183
6707,-1183
6708,-1233
6709,-1217
6710,-1250
6711,-1250
6712,-1183
6713,-1183
6714,-1100
6715,-1100
6716,-1117
6717,-1117
6718,-1150
6719,-1150
6720,-1167
6721,-1150
6722,-1183
6723,-1200
6724,-1167
6725,-1167
6726,-1083
6727,-1083
6728,-933
6729,-933
6730,-617
6731,-600
6732,-250
6733,-250
6734,-100
6735,-100
6736,-50
6737,-67
6738,-50
6739,-67
6740,-100
6741,-83
6742,-117
6743,-117
6744,-167
6745,-167
6746,-317
6747,-333
6748,-433
6749,-417
6750,-450
6751,-450
6752,-450
6753,-433
6754,-467
6755,-467
6756,-417
6757,-433
6758,-350
6759,-350
6760,-217
6761,-217
6762,17
6763,33
6764,400
6765,417
6766,1150
6767,1000
6768,1567
6769,1550
6770,-183
6771,-167
6772,2867
6773,2817
6774,2350
6775,2350
6776,2117
6777,2100
6778,1300
6779,1250
6780,33
6781,-17
6782,-1117
6783,-1150
6784,-1867
6785,-1883
6786,-2283
6787,-2300
6788,-2433
6789,-2450
6790,-2517
6791,-2500
6792,-2583
6793,-2567
6794,-2683
6795,-2667
6796,-2700
6797,-2683
6798,-2550
6799,-2533
6800,-2200
6801,-2183
6802,-1817
6803,-1800
6804,-1433
6805,-1433
6806,-1217
6807,-1217
6808,-1117
6809,-1117
6810,-1000
6811,-1000
6812,-900
6813,-900
6814,-800
6815,-800
6816,-667
6817,-667
6818,-600
6819,-600
6820,-533
6821,-517
6822,-467
6823,-450
6824,-483
6825,-483
6826,-567
6827,-550
6828,-650
6829,-650
6830,-717
6831,-700
6832,-633
6833,-633
6834,-483
6835,-483
6836,-333
6837,-333
6838,-167
6839,-167
6840,-83
6841,-100
6842,-33
6843,-33
6844,-50
6845,-50
6846,17
6847,17
6848,0
6849,0
6850,33
6851,17
6852,67
6853,50
6854,133
6855,117
6856,167
6857,167
6858,200
6859,200
6860,217
6861,183
6862,217
6863,217
6864,233
6865,233
6866,200
6867,200
6868,233
6869,200
6870,250
6871,233
6872,267
6873,250
6874,317
6875,300
6876,333
6877,300
6878,200
6879,200
6880,117
6881,117
6882,83
6883,100
6884,50
6885,50
6886,-50
6887,-67
6888,-33
6889,-33
6890,100
6891,100
6892,200
6893,217
6894,350
6895,350
6896,433
6897,433
6898,417
6899,417
6900,483
6901,483
6902,533
6903,533
6904,300
6905,283
6906,-550
6907,-583
6908,-1300
6909,-1283
6910,-383
6911,-317
6912,883
6913,917
6914,1467
6915,1500
6916,833
6917,767
6918,-217
6919,-183
6920,817
6921,867
6922,2217
6923,2650
6924,1233
6925,1100
6926,367
6927,383
6928,267
6929,250
6930,-83
6931,-183
6932,-67
6933,-33
6934,783
6935,817
6936,1117
6937,1083
6938,917
6939,900
6940,933
6941,933
6942,867
6943,867
6944,683
6945,717
6946,667
6947,667
6948,533
6949,533
6950,467
6951,483
6952,417
6953,417
6954,433
6955,417
6956,383
6957,400
6958,367
6959,383
6960,350
6961,350
6962,400
6963,400
6964,417
6965,400
6966,467
6967,467
6968,483
6969,483
6970,450
6971,433
6972,467
6973,450
6974,417
6975,400
6976,450
6977,433
6978,450
6979,467
6980,433
6981,450
6982,417
6983,433
6984,400
6985,400
6986,350
6987,383
6988,350
6989,367
6990,350
6991,383
6992,350
6993,367
6994,333
6995,333
6996,283
6997,267
6998,200
6999,183
7000,167
7001,167
7002,150
7003,167
7004,183
7005,1000
7006,167
7007,200
7008,200
7009,233
7010,217
7011,267
7012,267
7013,317
7014,317
7015,350
7016,350
7017,417
7018,417
7019,467
7020,483
7021,550
7022,550
7023,650
7024,650
7025,733
7026,750
7027,933
7028,933
7029,1250
7030,1283
7031,1533
7032,1250
7033,183
7034,850
7035,5283
7036,1367
7037,3817
7038,3117
7039,-1283
7040,-1267
7041,-2083
7042,-1850
7043,-1000
7044,-983
7045,-550
7046,-533
7047,-350
7048,-350
7049,-233
7050,-217
7051,-100
7052,-100
7053,-17
7054,-17
7055,67
7056,67
7057,133
7058,100
7059,150
7060,133
7061,150
7062,133
7063,167
7064,150
7065,167
7066,150
7067,167
7068,167
7069,200
7070,183
7071,233
7072,233
7073,283
7074,300
7075,267
7076,267
7077,250
7078,233
7079,217
7080,233
7081,267
7082,250
7083,267
7084,267
7085,217
7086,233
7087,200
7088,200
7089,233
7090,217
7091,267
7092,300
7093,233
7094,233
7095,133
7096,133
7097,50
7098,50
7099,-17
7100,-17
7101,-100
7102,-100
7103,-267
7104,-283
7105,-333
7106,-333
7107,-267
7108,-267
7109,-117
7110,-117
7111,17
7112,33
7113,133
7114,133
7115,167
7116,133
7117,50
7118,50
7119,-17
7120,-17
7121,33
7122,33
7123,117
7124,117
7125,200
7126,200
7127,217
7128,200
7129,167
7130,183
7131,133
7132,133
7133,83
7134,83
7135,-17
7136,-17
7137,-150
7138,-150
7139,-200
7140,-183
7141,-217
7142,-233
7143,-267
7144,-250
7145,-150
7146,-150
7147,-17
7148,0
7149,150
7150,150
7151,283
7152,283
7153,450
7154,450
7155,733
7156,733
7157,983
7158,1000
7159,1250
7160,1250
7161,1600
7162,1800
7163,1400
7164,1817
7165,750
7166,350
7167,1317
7168,1600
7169,5233
7170,4217
7171,3067
7172,3033
7173,1933
7174,1900
7175,700
7176,650
7177,-517
7178,-567
7179,-1467
7180,-1500
7181,-1967
7182,-1967
7183,-2200
7184,-2200
7185,-2233
7186,-2217
7187,-2083
7188,-2067
7189,-1850
7190,-1833
7191,-1583
7192,-1583
7193,-1267
7194,-1250
7195,-1033
7196,-1033
7197,-900
7198,-883
7199,-767
7200,-750
7201,-700
7202,-717
7203,-683
7204,-683
7205,-633
7206,-683
7207,-650
7208,-650
7209,-550
7210,-550
7211,-483
7212,-483
7213,-333
7214,-333
7215,-200
7216,-183
7217,-150
7218,-133
7219,-167
7220,-167
7221,-67
7222,-67
7223,17
7224,17
7225,117
7226,117
7227,217
7228,217
7229,317
7230,350
7231,133
7232,100
7233,-850
7234,-900
7235,-1200
7236,-1067
7237,33
7238,100
7239,1200
7240,1233
7241,1900
7242,1900
7243,1650
7244,1633
7245,1233
7246,1233
7247,983
7248,967
7249,867
7250,867
7251,800
7252,783
7253,733
7254,733
7255,683
7256,683
7257,717
7258,700
7259,650
7260,650
7261,683
7262,667
7263,700
7264,683
7265,700
7266,667
7267,700
7268,667
7269,717
7270,700
7271,517
7272,500
7273,33
7274,0
7275,-317
7276,-333
7277,150
7278,183
7279,967
7280,983
7281,1067
7282,1033
7283,933
7284,933
7285,983
7286,933
7287,683
7288,667
7289,550
7290,550
7291,500
7292,500
7293,467
7294,483
7295,500
7296,467
7297,500
7298,500
7299,650
7300,650
7301,1200
7302,1467
7303,250
7304,117
7305,-467
7306,-350
7307,100
7308,117
7309,367
7310,367
7311,483
7312,483
7313,500
7314,500
7315,450
7316,450
7317,400
7318,400
7319,300
7320,300
7321,183
7322,167
7323,100
7324,133
7325,-400
7326,-450
7327,-1100
7328,-967
7329,33
7330,100
7331,1033
7332,1100
7333,1033
7334,1033
7335,617
7336,583
7337,183
7338,167
7339,17
7340,17
7341,-100
7342,-100
7343,-117
7344,-83
7345,-50
7346,-50
7347,0
7348,0
7349,33
7350,17
7351,50
7352,50
7353,83
7354,67
7355,100
7356,117
7357,67
7358,67
7359,50
7360,67
7361,17
7362,17
7363,-33
7364,-17
7365,-50
7366,-50
7367,-33
7368,-33
7369,0
7370,0
7371,33
7372,17
7373,50
7374,50
7375,83
7376,67
7377,100
7378,100
7379,50
7380,50
7381,-33
7382,-50
7383,-117
7384,-100
7385,-133
7386,-133
7387,-167
7388,-167
7389,-150
7390,-150
7391,-167
7392,-133
7393,-167
7394,-150
7395,-183
7396,-183
7397,-167
7398,-167
7399,-183
7400,-167
7401,-183
7402,-167
7403,-200
7404,-200
7405,-233
7406,-233
7407,-200
7408,-200
7409,-233
7410,-200
7411,-250
7412,-200
7413,-183
7414,-183
7415,-167
7416,-167
7417,-133
7418,-133
7419,-83
7420,-100
7421,-133
7422,-117
7423,-167
7424,-167
7425,-250
7426,-217
7427,-267
7428,-267
7429,-300
7430,-300
7431,-233
7432,-217
7433,-150
7434,-150
7435,-67
7436,-67
7437,50
7438,67
7439,183
7440,200
7441,283
7442,283
7443,333
7444,317
7445,367
7446,350
7447,467
7448,483
7449,883
7450,1000
7451,283
7452,-150
7453,3367
7454,4733
7455,617
7456,3233
7457,-483
7458,-750
7459,-2633
7460,-2767
7461,-2083
7462,-2033
7463,-1317
7464,-1300
7465,-1017
7466,-1017
7467,-917
7468,-933
7469,-950
7470,-917
7471,-850
7472,-850
7473,-750
7474,-750
7475,-800
7476,-783
7477,-867
7478,-867
7479,-917
7480,-933
7481,-883
7482,-883
7483,-700
7484,-700
7485,-483
7486,-467
7487,-383
7488,-383
7489,-333
7490,-350
7491,-367
7492,-350
7493,-383
7494,-383
7495,-467
7496,-450
7497,-500
7498,-467
7499,-500
7500,-467
7501,-300
7502,-300
7503,-233
7504,-233
7505,-183
7506,-200
7507,-167
7508,-183
7509,-150
7510,-150
7511,-17
7512,-17
7513,50
7514,50
7515,150
7516,167
7517,333
7518,333
7519,433
7520,433
7521,367
7522,383
7523,317
7524,283
7525,317
7526,283
7527,150
7528,150
7529,0
7530,17
7531,-17
7532,-17
7533,-33
7534,-33
7535,17
7536,17
7537,83
7538,67
7539,-17
7540,0
7541,-50
7542,-50
7543,-117
7544,-117
7545,-100
7546,-117
7547,-83
7548,-117
7549,-67
7550,-67
7551,-100
7552,-117
7553,-83
7554,-83
7555,33
7556,33
7557,200
7558,217
7559,417
7560,417
7561,683
7562,683
7563,867
7564,850
7565,300
7566,250
7567,-700
7568,-967
7569,-717
7570,-683
7571,617
7572,667
7573,1517
7574,1533
7575,1850
7576,1833
7577,1667
7578,1667
7579,1600
7580,1617
7581,1733
7582,1733
7583,2067
7584,2083
7585,2583
7586,2333
7587,3050
7588,2700
7589,5183
7590,5150
7591,2917
7592,3833
7593,4100
7594,3917
7595,3550
7596,3517
7597,2417
7598,2367
7599,1050
7600,1000
7601,-50
7602,-100
7603,-817
7604,-833
7605,-1233
7606,-1250
7607,-1317
7608,-1317
7609,-1250
7610,-1250
7611,-1183
7612,-1167
7613,-1033
7614,-1017
7615,-883
7616,-867
7617,-717
7618,-717
7619,-533
7620,-533
7621,-400
7622,-400
7623,-567
7624,-567
7625,-817
7626,-867
7627,-550
7628,-517
7629,483
7630,500
7631,750
7632,750
7633,650
7634,667
7635,750
7636,783
7637,733
7638,733
7639,683
7640,700
7641,733
7642,717
7643,667
7644,700
7645,733
7646,750
7647,867
7648,867
7649,900
7650,883
7651,900
7652,883
7653,917
7654,867
7655,800
7656,800
7657,733
7658,733
7659,700
7660,717
7661,767
7662,767
7663,867
7664,867
7665,1250
7666,1283
7667,1800
7668,1783
7669,-150
7670,-150
7671,217
7672,250
7673,633
7674,650
7675,850
7676,850
7677,967
7678,967
7679,1017
7680,1017
7681,1050
7682,1017
7683,1050
7684,1033
7685,1050
7686,1033
7687,1050
7688,1033
7689,1000
7690,1017
7691,983
7692,1000
7693,983
7694,1000
7695,950
7696,967
7697,917
7698,933
7699,900
7700,933
7701,883
7702,900
7703,867
7704,867
7705,817
7706,817
7707,783
7708,800
7709,750
7710,767
7711,750
7712,750
7713,800
7714,767
7715,833
7716,833
7717,883
7718,883
7719,933
7720,900
7721,950
7722,950
7723,967
7724,933
7725,983
7726,983
7727,933
7728,950
7729,917
7730,917
7731,933
7732,900
7733,917
7734,883
7735,900
7736,867
7737,900
7738,883
7739,900
7740,900
7741,867
7742,883
7743,850
7744,850
7745,833
7746,833
7747,800
7748,800
7749,783
7750,767
7751,717
7752,717
7753,667
7754,700
7755,650
7756,667
7757,633
7758,667
7759,633
7760,650
7761,667
7762,650
7763,667
7764,667
7765,700
7766,700
7767,683
7768,700
7769,683
7770,700
7771,650
7772,667
7773,617
7774,633
7775,600
7776,583
7777,683
7778,683
7779,367
7780,333
7781,-300
7782,-217
7783,700
7784,750
7785,1617
7786,1633
7787,1700
7788,1617
7789,1283
7790,1267
7791,1000
7792,1000
7793,817
7794,817
7795,750
7796,733
7797,683
7798,683
7799,650
7800,700
7801,667
7802,683
7803,717
7804,733
7805,883
7806,900
7807,1300
7808,1383
7809,583
7810,-33
7811,3083
7812,5483
7813,2150
7814,3967
7815,-400
7816,-567
7817,-1550
7818,-1800
7819,-1233
7820,-1200
7821,-533
7822,-517
7823,-200
7824,-200
7825,-50
7826,-50
7827,67
7828,67
7829,117
7830,117
7831,83
7832,117
7833,133
7834,117
7835,100
7836,117
7837,83
7838,83
7839,117
7840,100
7841,167
7842,167
7843,233
7844,217
7845,267
7846,267
7847,350
7848,350
7849,467
7850,467
7851,517
7852,500
7853,550
7854,550
7855,617
7856,600
7857,467
7858,467
7859,283
7860,267
7861,83
7862,67
7863,-33
7864,-67
7865,-33
7866,-50
7867,17
7868,33
7869,83
7870,100
7871,167
7872,167
7873,233
7874,233
7875,217
7876,217
7877,233
7878,233
7879,267
7880,267
7881,317
7882,300
7883,333
7884,300
7885,283
7886,283
7887,267
7888,267
7889,233
7890,250
7891,283
7892,267
7893,300
7894,267
7895,317
7896,283
7897,250
7898,250
7899,183
7900,183
7901,133
7902,150
7903,100
7904,117
7905,150
7906,167
7907,233
7908,233
7909,300
7910,300
7911,367
7912,367
7913,400
7914,367
7915,400
7916,383
7917,367
7918,350
7919,283
7920,283
7921,317
7922,283
7923,333
7924,333
7925,350
7926,367
7927,317
7928,317
7929,233
7930,217
7931,150
7932,150
7933,33
7934,50
7935,-17
7936,-17
7937,17
7938,0
7939,83
7940,83
7941,133
7942,133
7943,183
7944,217
7945,167
7946,183
7947,-17
7948,-33
7949,-750
7950,-800
7951,-1450
7952,-1433
7953,-650
7954,-583
7955,467
7956,500
7957,1183
7958,1217
7959,1067
7960,1050
7961,650
7962,633
7963,333
7964,317
7965,183
7966,183
7967,167
7968,183
7969,150
7970,167
7971,200
7972,200
7973,150
7974,133
7975,0
7976,0
7977,-67
7978,-67
7979,-100
7980,-100
7981,-83
7982,-117
7983,-83
7984,-100
7985,-133
7986,-133
7987,-83
7988,-83
7989,-17
7990,-17
7991,33
7992,33
7993,-67
7994,-83
7995,-300
7996,-300
7997,-550
7998,-567
7999,-733
8000,-767
8001,-683
8002,-667
8003,-433
8004,-433
8005,-167
8006,1000
8007,-150
8008,-17
8009,0
8010,100
8011,100
8012,267
8013,267
8014,200
8015,200
8016,-167
8017,-183
8018,-767
8019,-783
8020,-967
8021,-933
8022,-83
8023,-33
8024,583
8025,600
8026,433
8027,433
8028,317
8029,317
8030,117
8031,117
8032,-83
8033,-83
8034,-150
8035,-150
8036,-233
8037,-233
8038,-183
8039,-167
8040,-83
8041,-67
8042,33
8043,50
8044,233
8045,250
8046,500
8047,517
8048,917
8049,950
8050,1633
8051,1350
8052,1717
8053,1567
8054,-67
8055,0
8056,3500
8057,4350
8058,3617
8059,3617
8060,3200
8061,3100
8062,217
8063,167
8064,-650
8065,-683
8066,-1350
8067,-1383
8068,-1850
8069,-1850
8070,-2150
8071,-2167
8072,-2283
8073,-2300
8074,-2267
8075,-2283
8076,-2183
8077,-2183
8078,-2067
8079,-2067
8080,-1917
8081,-1917
8082,-1767
8083,-1767
8084,-1617
8085,-1617
8086,-1500
8087,-1500
8088,-1333
8089,-1333
8090,-1183
8091,-1200
8092,-1067
8093,-1067
8094,-1000
8095,-1000
8096,-967
8097,-983
8098,-967
8099,-983
8100,-950
8101,-967
8102,-917
8103,-933
8104,-883
8105,-867
8106,-800
8107,-783
8108,-817
8109,-800
8110,-833
8111,-800
8112,-750
8113,-767
8114,-800
8115,-800
8116,-917
8117,-933
8118,-1000
8119,-967
8120,-750
8121,-733
8122,-450
8123,-433
8124,-100
8125,-83
8126,67
8127,67
8128,-50
8129,-67
8130,-300
8131,-300
8132,-400
8133,-400
8134,-417
8135,-417
8136,-383
8137,-400
8138,-333
8139,-333
8140,-283
8141,-283
8142,-217
8143,-233
8144,-150
8145,-150
8146,-83
8147,-83
8148,0
8149,0
8150,233
8151,250
8152,517
8153,550
8154,-467
8155,-533
8156,3383
8157,2717
8158,-67
8159,1883
8160,-3217
8161,-3100
8162,-3467
8163,-3067
8164,-1267
8165,-1200
8166,-583
8167,-533
8168,-617
8169,-617
8170,-700
8171,-717
8172,-667
8173,-667
8174,-567
8175,-583
8176,-517
8177,-483
8178,-517
8179,-483
8180,-450
8181,-467
8182,-417
8183,-417
8184,-383
8185,-383
8186,-350
8187,-367
8188,-333
8189,-350
8190,-300
8191,-300
8192,-267
8193,-267
8194,-333
8195,-333
8196,-383
8197,-383
8198,-467
8199,-450
8200,-500
8201,-500
8202,-550
8203,-550
8204,-600
8205,-583
8206,-617
8207,-600
8208,-633
8209,-617
8210,-567
8211,-567
8212,-483
8213,-467
8214,-383
8215,-383
8216,-417
8217,-400
8218,-350
8219,-383
8220,-350
8221,-350
8222,-317
8223,-317
8224,-300
8225,-300
8226,-367
8227,-350
8228,-417
8229,-417
8230,-550
8231,-550
8232,-650
8233,-650
8234,-767
8235,-767
8236,-817
8237,-817
8238,-783
8239,-783
8240,-717
8241,-700
8242,-550
8243,-550
8244,-500
8245,-500
8246,-467
8247,-483
8248,-450
8249,-467
8250,-500
8251,-483
8252,-450
8253,-483
8254,-350
8255,-350
8256,-250
8257,-283
8258,-917
8259,-950
8260,-1817
8261,-1817
8262,-1483
8263,-1450
8264,-233
8265,-200
8266,583
8267,600
8268,667
8269,617
8270,283
8271,267
8272,33
8273,17
8274,-83
8275,-83
8276,-117
8277,-83
8278,-67
8279,-83
8280,-117
8281,-83
8282,-117
8283,-100
8284,-150
8285,-133
8286,-183
8287,-167
8288,-233
8289,-217
8290,-267
8291,-250
8292,-283
8293,-283
8294,-267
8295,-267
8296,-283
8297,-283
8298,-317
8299,-300
8300,-350
8301,-350
8302,-400
8303,-400
8304,-450
8305,-433
8306,-467
8307,-450
8308,-483
8309,-450
8310,-517
8311,-533
8312,-500
8313,-483
8314,-517
8315,-517
8316,-467
8317,-483
8318,-450
8319,-450
8320,-367
8321,-383
8322,-317
8323,-300
8324,-250
8325,-233
8326,-183
8327,-200
8328,-233
8329,-250
8330,-267
8331,-250
8332,-283
8333,-283
8334,-250
8335,-233
8336,-200
8337,-200
8338,-167
8339,-150
8340,-117
8341,-150
8342,-100
8343,-100
8344,-150
8345,-150
8346,-117
8347,-117
8348,-150
8349,-133
8350,-200
8351,-167
8352,-233
8353,-233
8354,-267
8355,-283
8356,-250
8357,-250
8358,-300
8359,-283
8360,-300
8361,-300
8362,-283
8363,-283
8364,-250
8365,-250
8366,-217
8367,-217
8368,-117
8369,-117
8370,-17
8371,-33
8372,33
8373,33
8374,67
8375,67
8376,17
8377,33
8378,-17
8379,0
8380,-33
8381,0
8382,17
8383,17
8384,67
8385,50
8386,83
8387,83
8388,50
8389,67
8390,83
8391,83
8392,50
8393,67
8394,83
8395,83
8396,100
8397,100
8398,67
8399,83
8400,50
8401,67
8402,50
8403,67
8404,83
8405,83
8406,117
8407,133
8408,100
8409,150
8410,183
8411,183
8412,267
8413,267
8414,283
8415,300
8416,333
8417,317
8418,233
8419,217
8420,33
8421,33
8422,-100
8423,-117
8424,-83
8425,-100
8426,17
8427,33
8428,217
8429,233
8430,383
8431,383
8432,417
8433,400
8434,183
8435,183
8436,-17
8437,-17
8438,-117
8439,-133
8440,-50
8441,-50
8442,67
8443,67
8444,83
8445,83
8446,100
8447,117
8448,200
8449,200
8450,350
8451,350
8452,517
8453,533
8454,450
8455,450
8456,33
8457,0
8458,-600
8459,-617
8460,-783
8461,-683
8462,150
8463,183
8464,533
8465,517
8466,433
8467,400
8468,600
8469,617
8470,683
8471,667
8472,517
8473,533
8474,583
8475,583
8476,633
8477,633
8478,700
8479,700
8480,617
8481,600
8482,483
8483,467
8484,500
8485,500
8486,667
8487,683
8488,800
8489,800
8490,950
8491,950
8492,1000
8493,1000
8494,883
8495,883
8496,783
8497,817
8498,867
8499,867
8500,1033
8501,1033
8502,1300
8503,1317
8504,1667
8505,1683
8506,2350
8507,2617
8508,933
8509,817
8510,1217
8511,1250
8512,1900
8513,1917
8514,2733
8515,2617
8516,3317
8517,3300
8518,2000
8519,2067
8520,4000
8521,3000
8522,3717
8523,3717
8524,3883
8525,3867
8526,3500
8527,3483
8528,2800
8529,2767
8530,1133
8531,533
8532,3583
8533,3967
8534,600
8535,3017
8536,-1100
8537,-1250
8538,-2600
8539,-2617
8540,-1783
8541,-1750
8542,-1033
8543,-1017
8544,-650
8545,-633
8546,-333
8547,-317
8548,-67
8549,-50
8550,217
8551,217
8552,467
8553,467
8554,617
8555,617
8556,767
8557,783
8558,867
8559,867
8560,883
8561,850
8562,883
8563,883
8564,1000
8565,1000
8566,1133
8567,1133
8568,1267
8569,1283
8570,1383
8571,1417
8572,1233
8573,1217
8574,500
8575,433
8576,-200
8577,-183
8578,550
8579,617
8580,1583
8581,1617
8582,2183
8583,2250
8584,1883
8585,1833
8586,683
8587,650
8588,1117
8589,1150
8590,1950
8591,1983
8592,2117
8593,2083
8594,1783
8595,1767
8596,1533
8597,1517
8598,1450
8599,1467
8600,1433
8601,1450
8602,1367
8603,1367
8604,1233
8605,1233
8606,1067
8607,1067
8608,967
8609,950
8610,900
8611,917
8612,933
8613,900
8614,933
8615,933
8616,900
8617,900
8618,883
8619,900
8620,867
8621,883
8622,833
8623,833
8624,733
8625,750
8626,700
8627,700
8628,733
8629,700
8630,650
8631,650
8632,517
8633,517
8634,383
8635,400
8636,267
8637,267
8638,167
8639,150
8640,67
8641,67
8642,-33
8643,-33
8644,-167
8645,-167
8646,-283
8647,-267
8648,-350
8649,-333
8650,-417
8651,-417
8652,-500
8653,-500
8654,-550
8655,-533
8656,-550
8657,-533
8658,-583
8659,-583
8660,-617
8661,-633
8662,-583
8663,-583
8664,-567
8665,-583
8666,-533
8667,-533
8668,-500
8669,-517
8670,-483
8671,-483
8672,-450
8673,-467
8674,-433
8675,-450
8676,-417
8677,-433
8678,-450
8679,-433
8680,-450
8681,-450
8682,-467
8683,-450
8684,-383
8685,-400
8686,-283
8687,-283
8688,-167
8689,-167
8690,-83
8691,-83
8692,-50
8693,-67
8694,-100
8695,-117
8696,-133
8697,-133
8698,-183
8699,-167
8700,-217
8701,-217
8702,-233
8703,-250
8704,-283
8705,-267
8706,-300
8707,-300
8708,-317
8709,-333
8710,-267
8711,-300
8712,-217
8713,-200
8714,-133
8715,-150
8716,-167
8717,-150
8718,-100
8719,-100
8720,-83
8721,-83
8722,-50
8723,-67
8724,-150
8725,-150
8726,-100
8727,-83
8728,0
8729,0
8730,100
8731,100
8732,250
8733,250
8734,467
8735,467
8736,667
8737,667
8738,783
8739,783
8740,867
8741,867
8742,883
8743,867
8744,733
8745,733
8746,600
8747,583
8748,533
8749,550
8750,517
8751,550
8752,617
8753,633
8754,600
8755,617
8756,500
8757,483
8758,300
8759,300
8760,83
8761,67
8762,17
8763,33
8764,50
8765,67
8766,150
8767,150
8768,250
8769,250
8770,233
8771,233
8772,283
8773,283
8774,250
8775,250
8776,283
8777,300
8778,400
8779,400
8780,450
8781,433
8782,483
8783,467
8784,500
8785,483
8786,400
8787,400
8788,333
8789,333
8790,283
8791,283
8792,200
8793,200
8794,183
8795,183
8796,217
8797,183
8798,167
8799,167
8800,250
8801,267
8802,300
8803,317
8804,217
8805,200
8806,150
8807,150
8808,83
8809,100
8810,17
8811,0
8812,-400
8813,-417
8814,-800
8815,-850
8816,-467
8817,-433
8818,-67
8819,-67
8820,-217
8821,-250
8822,-150
8823,-150
8824,67
8825,67
8826,133
8827,133
8828,67
8829,50
8830,-67
8831,-67
8832,-100
8833,-117
8834,-167
8835,-167
8836,-250
8837,-267
8838,-400
8839,-400
8840,-483
8841,-483
8842,-517
8843,-517
8844,-550
8845,-517
8846,-550
8847,-550
8848,-500
8849,-517
8850,-500
8851,-500
8852,-517
8853,-517
8854,-467
8855,-500
8856,-483
8857,-517
8858,-483
8859,-500
8860,-550
8861,-533
8862,-567
8863,-567
8864,-533
8865,-550
8866,-483
8867,-500
8868,-417
8869,-417
8870,-500
8871,-483
8872,-600
8873,-600
8874,-667
8875,-650
8876,-633
8877,-633
8878,-600
8879,-600
8880,-650
8881,-617
8882,-667
8883,-667
8884,-750
8885,-733
8886,-767
8887,-767
8888,-817
8889,-800
8890,-650
8891,-650
8892,-467
8893,-450
8894,-50
8895,-33
8896,1050
8897,1417
8898,0
8899,-1483
8900,150
8901,1233
8902,-617
8903,1933
8904,-633
8905,-967
8906,-2517
8907,-2650
8908,-1833
8909,-1800
8910,-1233
8911,-1217
8912,-917
8913,-917
8914,-717
8915,-717
8916,-583
8917,-567
8918,-467
8919,-467
8920,-383
8921,-383
8922,-300
8923,-300
8924,-150
8925,-133
8926,100
8927,100
8928,467
8929,500
8930,1117
8931,1017
8932,1600
8933,1317
8934,-450
8935,-283
8936,317
8937,-33
8938,567
8939,567
8940,750
8941,717
8942,300
8943,283
8944,-417
8945,-450
8946,-967
8947,-983
8948,-1383
8949,-1400
8950,-1567
8951,-1583
8952,-1667
8953,-1667
8954,-1633
8955,-1633
8956,-1583
8957,-1583
8958,-1433
8959,-1433
8960,-1367
8961,-1450
8962,-1883
8963,-1917
8964,-2550
8965,-2533
8966,-1867
8967,-1817
8968,-733
8969,-700
8970,-17
8971,17
8972,-50
8973,-67
8974,-367
8975,-383
8976,-650
8977,-667
8978,-867
8979,-867
8980,-933
8981,-917
8982,-950
8983,-917
8984,-967
8985,-933
8986,-967
8987,-950
8988,-1050
8989,-1050
8990,-1100
8991,-1150
8992,-1083
8993,-1050
8994,-1333
8995,-1367
8996,-1967
8997,-1900
8998,-967
8999,-917
9000,83
9001,117
9002,283
9003,267
9004,117
9005,100
9006,-67
9007,1000
9008,-67
9009,-200
9010,-200
9011,-250
9012,-250
9013,-217
9014,-250
9015,-200
9016,-217
9017,-133
9018,-133
9019,-83
9020,-100
9021,-50
9022,-67
9023,-50
9024,-67
9025,-133
9026,-133
9027,-183
9028,-167
9029,-200
9030,-183
9031,-217
9032,-200
9033,-250
9034,-233
9035,-283
9036,-267
9037,-217
9038,-217
9039,-183
9040,-200
9041,-217
9042,-250
9043,-217
9044,-267
9045,-367
9046,-383
9047,-567
9048,-567
9049,-650
9050,-667
9051,-617
9052,-617
9053,-517
9054,-500
9055,-450
9056,-450
9057,-367
9058,-367
9059,-333
9060,-333
9061,-300
9062,-300
9063,-233
9064,-233
9065,-200
9066,-200
9067,-267
9068,-250
9069,-217
9070,-217
9071,-183
9072,-183
9073,-133
9074,-133
9075,-100
9076,-100
9077,-150
9078,-133
9079,-167
9080,-150
9081,-200
9082,-183
9083,-217
9084,-217
9085,-167
9086,-183
9087,-150
9088,-167
9089,-200
9090,-183
9091,-267
9092,-283
9093,-350
9094,-350
9095,-400
9096,-400
9097,-350
9098,-367
9099,-317
9100,-333
9101,-300
9102,-283
9103,-267
9104,-267
9105,-317
9106,-300
9107,-350
9108,-350
9109,-317
9110,-317
9111,-283
9112,-267
9113,-300
9114,-267
9115,-300
9116,-300
9117,-333
9118,-333
9119,-383
9120,-383
9121,-417
9122,-433
9123,-383
9124,-367
9125,-283
9126,-283
9127,-167
9128,-167
9129,-83
9130,-83
9131,-150
9132,-150
9133,-217
9134,-200
9135,-250
9136,-267
9137,-283
9138,-267
9139,-300
9140,-283
9141,-300
9142,-300
9143,-350
9144,-350
9145,-400
9146,-400
9147,-383
9148,-400
9149,-333
9150,-333
9151,-367
9152,-367
9153,-317
9154,-300
9155,-217
9156,-217
9157,-133
9158,-133
9159,-33
9160,-33
9161,50
9162,50
9163,17
9164,0
9165,-450
9166,-467
9167,-900
9168,-950
9169,-550
9170,-500
9171,217
9172,283
9173,217
9174,200
9175,33
9176,50
9177,33
9178,33
9179,-100
9180,-100
9181,-133
9182,-133
9183,-183
9184,-183
9185,-150
9186,-167
9187,-183
9188,-183
9189,-200
9190,-200
9191,-250
9192,-250
9193,-283
9194,-283
9195,-317
9196,-333
9197,-267
9198,-267
9199,-200
9200,-200
9201,-150
9202,-167
9203,-117
9204,-133
9205,-100
9206,-100
9207,-117
9208,-100
9209,-83
9210,-83
9211,-117
9212,-83
9213,0
9214,-17
9215,17
9216,17
9217,-17
9218,0
9219,-200
9220,-200
9221,-417
9222,-433
9223,-567
9224,-567
9225,-617
9226,-617
9227,-567
9228,-567
9229,-483
9230,-483
9231,-467
9232,-467
9233,-483
9234,-483
9235,-450
9236,-467
9237,-400
9238,-383
9239,-350
9240,-350
9241,-317
9242,-333
9243,-317
9244,-333
9245,-267
9246,-267
9247,-150
9248,-150
9249,-100
9250,-83
9251,-117
9252,-83
9253,-167
9254,-167
9255,-283
9256,-300
9257,-383
9258,-383
9259,-483
9260,-483
9261,-533
9262,-517
9263,-483
9264,-517
9265,-467
9266,-450
9267,-333
9268,-333
9269,-217
9270,-217
9271,-150
9272,-183
9273,-250
9274,-250
9275,-283
9276,-283
9277,-217
9278,-200
9279,83
9280,100
9281,433
9282,450
9283,583
9284,583
9285,550
9286,583
9287,700
9288,700
9289,883
9290,67
9291,1933
9292,1983
9293,-317
9294,2350
9295,-1350
9296,-1417
9297,-2000
9298,-2150
9299,-1517
9300,-1483
9301,-950
9302,-933
9303,-767
9304,-767
9305,-650
9306,-650
9307,-567
9308,-567
9309,-483
9310,-500
9311,-417
9312,-417
9313,-367
9314,-367
9315,-217
9316,-217
9317,-150
9318,-133
9319,-150
9320,-133
9321,-50
9322,-67
9323,-17
9324,-33
9325,-83
9326,-83
9327,-100
9328,-83
9329,-117
9330,-83
9331,-33
9332,-33
9333,67
9334,67
9335,133
9336,150
9337,50
9338,50
9339,-533
9340,-567
9341,-1450
9342,-1450
9343,-950
9344,-900
9345,200
9346,233
9347,917
9348,933
9349,1033
9350,950
9351,650
9352,650
9353,433
9354,433
9355,317
9356,317
9357,217
9358,217
9359,117
9360,117
9361,133
9362,133
9363,250
9364,267
9365,700
9366,933
9367,-917
9368,-1133
9369,-917
9370,-900
9371,-450
9372,-433
9373,-217
9374,-217
9375,-133
9376,-133
9377,-50
9378,-50
9379,33
9380,33
9381,217
9382,233
9383,400
9384,417
9385,933
9386,967
9387,1817
9388,1867
9389,2567
9390,2583
9391,1000
9392,950
9393,1767
9394,1767
9395,1400
9396,1633
9397,2067
9398,2083
9399,1750
9400,1733
9401,850
9402,817
9403,-67
9404,-83
9405,-750
9406,-767
9407,-1050
9408,-1050
9409,-1150
9410,-1150
9411,-1217
9412,-1217
9413,-1200
9414,-1217
9415,-1133
9416,-1133
9417,-983
9418,-983
9419,-800
9420,-783
9421,-633
9422,-633
9423,-483
9424,-500
9425,-400
9426,-400
9427,-317
9428,-333
9429,-283
9430,-283
9431,-300
9432,-283
9433,-233
9434,-233
9435,-183
9436,-183
9437,-150
9438,-167
9439,-217
9440,-200
9441,-267
9442,-250
9443,-317
9444,-250
9445,-483
9446,-517
9447,-1200
9448,-1150
9449,-417
9450,-383
9451,500
9452,500
9453,583
9454,517
9455,200
9456,200
9457,33
9458,33
9459,-33
9460,-33
9461,67
9462,83
9463,250
9464,267
9465,333
9466,333
9467,417
9468,417
9469,450
9470,450
9471,283
9472,267
9473,-267
9474,-283
9475,-600
9476,-583
9477,83
9478,117
9479,567
9480,583
9481,383
9482,367
9483,300
9484,300
9485,267
9486,283
9487,150
9488,150
9489,183
9490,133
9491,150
9492,167
9493,133
9494,167
9495,117
9496,133
9497,83
9498,83
9499,67
9500,83
9501,17
9502,33
9503,0
9504,0
9505,-33
9506,17
9507,-17
9508,0
9509,17
9510,0
9511,50
9512,33
9513,67
9514,67
9515,150
9516,167
9517,233
9518,233
9519,317
9520,333
9521,300
9522,317
9523,233
9524,250
9525,183
9526,183
9527,150
9528,150
9529,117
9530,133
9531,100
9532,100
9533,133
9534,100
9535,133
9536,117
9537,150
9538,100
9539,83
9540,100
9541,67
9542,83
9543,100
9544,83
9545,67
9546,83
9547,100
9548,100
9549,133
9550,133
9551,150
9552,150
9553,200
9554,200
9555,217
9556,217
9557,183
9558,183
9559,200
9560,200
9561,250
9562,233
9563,267
9564,233
9565,183
9566,183
9567,150
9568,150
9569,117
9570,133
9571,100
9572,133
9573,67
9574,83
9575,33
9576,50
9577,117
9578,117
9579,83
9580,83
9581,117
9582,117
9583,83
9584,117
9585,-33
9586,-33
9587,-200
9588,-233
9589,-200
9590,-217
9591,-150
9592,-150
9593,-83
9594,-83
9595,-67
9596,-67
9597,-17
9598,-17
9599,50
9600,50
9601,100
9602,117
9603,183
9604,167
9605,217
9606,217
9607,250
9608,233
9609,250
9610,250
9611,283
9612,267
9613,233
9614,233
9615,183
9616,200
9617,167
9618,167
9619,117
9620,117
9621,133
9622,117
9623,50
9624,50
9625,33
9626,17
9627,0
9628,0
9629,-17
9630,-17
9631,-33
9632,-50
9633,0
9634,0
9635,17
9636,33
9637,0
9638,33
9639,67
9640,67
9641,117
9642,117
9643,200
9644,200
9645,233
9646,233
9647,267
9648,267
9649,233
9650,233
9651,217
9652,233
9653,200
9654,217
9655,250
9656,250
9657,283
9658,283
9659,267
9660,267
9661,317
9662,300
9663,233
9664,233
9665,183
9666,183
9667,133
9668,133
9669,83
9670,100
9671,83
9672,100
9673,183
9674,183
9675,433
9676,433
9677,817
9678,983
9679,617
9680,233
9681,1483
9682,2417
9683,400
9684,2433
9685,-217
9686,-517
9687,-1450
9688,-1917
9689,-1450
9690,-1417
9691,-800
9692,-783
9693,-533
9694,-533
9695,-383
9696,-367
9697,-217
9698,-200
9699,-33
9700,-17
9701,100
9702,117
9703,217
9704,200
9705,283
9706,283
9707,267
9708,267
9709,217
9710,217
9711,83
9712,83
9713,-50
9714,-50
9715,-100
9716,-100
9717,-150
9718,-167
9719,-233
9720,-250
9721,-200
9722,-200
9723,-150
9724,-133
9725,-283
9726,-300
9727,-967
9728,-1000
9729,-1433
9730,-1400
9731,-567
9732,-517
9733,333
9734,383
9735,1400
9736,1633
9737,583
9738,417
9739,-350
9740,-200
9741,200
9742,217
9743,500
9744,500
9745,550
9746,517
9747,467
9748,450
9749,367
9750,367
9751,150
9752,150
9753,-50
9754,-67
9755,-167
9756,-150
9757,-83
9758,-83
9759,83
9760,83
9761,283
9762,300
9763,433
9764,433
9765,400
9766,417
9767,483
9768,467
9769,500
9770,483
9771,450
9772,467
9773,367
9774,367
9775,283
9776,283
9777,233
9778,233
9779,217
9780,200
9781,250
9782,250
9783,300
9784,283
9785,300
9786,300
9787,317
9788,300
9789,200
9790,200
9791,0
9792,0
9793,-67
9794,-67
9795,-33
9796,-17
9797,-17
9798,-17
9799,-33
9800,-17
9801,0
9802,-17
9803,17
9804,-17
9805,-67
9806,-67
9807,33
9808,50
9809,100
9810,100
9811,150
9812,117
9813,150
9814,133
9815,167
9816,150
9817,250
9818,250
9819,417
9820,433
9821,733
9822,750
9823,1183
9824,1217
9825,1733
9826,1667
9827,2217
9828,1600
9829,-50
9830,367
9831,-17
9832,183
9833,683
9834,683
9835,1000
9836,1000
9837,767
9838,733
9839,300
9840,283
9841,-83
9842,-100
9843,-333
9844,-350
9845,-500
9846,-517
9847,-633
9848,-633
9849,-683
9850,-683
9851,-717
9852,-700
9853,-717
9854,-717
9855,-683
9856,-683
9857,-633
9858,-633
9859,-733
9860,-733
9861,-883
9862,-867
9863,-1233
9864,-1233
9865,-1500
9866,-1517
9867,-1617
9868,-1483
9869,-300
9870,-233
9871,767
9872,783
9873,1067
9874,1083
9875,967
9876,967
9877,633
9878,633
9879,450
9880,433
9881,217
9882,217
9883,150
9884,167
9885,183
9886,150
9887,100
9888,100
9889,-83
9890,-100
9891,-200
9892,-183
9893,-117
9894,-117
9895,0
9896,0
9897,117
9898,117
9899,183
9900,183
9901,200
9902,200
9903,167
9904,183
9905,133
9906,133
9907,167
9908,150
9909,183
9910,183
9911,167
9912,167
9913,117
9914,117
9915,83
9916,83
9917,50
9918,33
9919,67
9920,67
9921,100
9922,83
9923,117
9924,100
9925,117
9926,133
9927,100
9928,100
9929,133
9930,133
9931,167
9932,167
9933,217
9934,167
9935,200
9936,183
9937,167
9938,167
9939,133
9940,133
9941,100
9942,117
9943,83
9944,83
9945,0
9946,17
9947,0
9948,0
9949,-17
9950,0
9951,-17
9952,0
9953,33
9954,33
9955,83
9956,83
9957,50
9958,33
9959,17
9960,33
9961,-17
9962,-17
9963,83
9964,83
9965,283
9966,300
9967,400
9968,417
9969,333
9970,333
9971,150
9972,150
9973,67
9974,67
9975,0
9976,0
9977,83
9978,83
9979,167
9980,167
9981,217
9982,217
9983,233
9984,233
9985,283
9986,250
9987,283
9988,267
9989,300
9990,300
9991,350
9992,333
9993,383
9994,367
9995,400
9996,383
9997,417
9998,383
9999,317
10000,317
10001,217
10002,217
10003,167
10004,200
10005,133
10006,133
10007,250
10008,1000
10009,250
10010,500
10011,517
10012,850
10013,1017
10014,467
10015,233
10016,1950
10017,1917
10018,-83
10019,2217
10020,-1183
10021,-1200
10022,-1933
10023,-1917
10024,-1083
10025,-1067
10026,-633
10027,-633
10028,-467
10029,-467
10030,-383
10031,-383
10032,-300
10033,-300
10034,-217
10035,-233
10036,-167
10037,-167
10038,-17
10039,-17
10040,133
10041,133
10042,167
10043,117
10044,50
10045,50
10046,33
10047,33
10048,100
10049,100
10050,167
10051,183
10052,150
10053,183
10054,83
10055,67
10056,-450
10057,-483
10058,-1317
10059,-1333
10060,-983
10061,-933
10062,67
10063,117
10064,867
10065,883
10066,950
10067,900
10068,583
10069,583
10070,433
10071,417
10072,367
10073,400
10074,367
10075,383
10076,300
10077,300
10078,233
10079,233
10080,183
10081,183
10082,117
10083,117
10084,67
10085,67
10086,50
10087,67
10088,50
10089,50
10090,83
10091,83
10092,50
10093,83
10094,50
10095,50
10096,17
10097,17
10098,67
10099,50
10100,117
10101,117
10102,183
10103,183
10104,217
10105,217
10106,117
10107,117
10108,33
10109,17
10110,50
10111,33
10112,100
10113,83
10114,117
10115,117
10116,83
10117,83
10118,17
10119,17
10120,233
10121,267
10122,800
10123,767
10124,-900
10125,-867
10126,-450
10127,-433
10128,-133
10129,-117
10130,50
10131,50
10132,150
10133,150
10134,200
10135,183
10136,167
10137,167
10138,100
10139,100
10140,50
10141,33
10142,-33
10143,-33
10144,-117
10145,-117
10146,-150
10147,-150
10148,-183
10149,-183
10150,-167
10151,-167
10152,-200
10153,-183
10154,-117
10155,-133
10156,-67
10157,-67
10158,-17
10159,-17
10160,-50
10161,-67
10162,-150
10163,-150
10164,-200
10165,-183
10166,-200
10167,-167
10168,-200
10169,-200
10170,-167
10171,-167
10172,-150
10173,-150
10174,-117
10175,-133
10176,-100
10177,-100
10178,17
10179,33
10180,133
10181,133
10182,83
10183,83
10184,33
10185,33
10186,0
10187,0
10188,50
10189,50
10190,100
10191,100
10192,67
10193,67
10194,117
10195,83
10196,133
10197,133
10198,250
10199,250
10200,317
10201,300
10202,183
10203,183
10204,117
10205,117
10206,133
10207,133
10208,83
10209,83
10210,33
10211,33
10212,0
10213,0
10214,-17
10215,-17
10216,-33
10217,-33
10218,-17
10219,-17
10220,0
10221,0
10222,33
10223,33
10224,83
10225,83
10226,117
10227,117
10228,50
10229,33
10230,-333
10231,-367
10232,-733
10233,-783
10234,-383
10235,-333
10236,350
10237,400
10238,283
10239,267
10240,117
10241,133
10242,33
10243,17
10244,-233
10245,-250
10246,-383
10247,-383
10248,-450
10249,-433
10250,-350
10251,-350
10252,-283
10253,-283
10254,-217
10255,-217
10256,-233
10257,-217
10258,-150
10259,-150
10260,-33
10261,-33
10262,-167
10263,-183
10264,-233
10265,-217
10266,-117
10267,-117
10268,17
10269,33
10270,183
10271,183
10272,250
10273,267
10274,367
10275,367
10276,467
10277,467
10278,633
10279,650
10280,933
10281,950
10282,1567
10283,1500
10284,2133
10285,1933
10286,-383
10287,-833
10288,-150
10289,-167
10290,333
10291,367
10292,983
10293,983
10294,750
10295,717
10296,117
10297,100
10298,-500
10299,-517
10300,-1167
10301,-1217
10302,-2400
10303,-2433
10304,-2000
10305,-1967
10306,-1083
10307,-1050
10308,-650
10309,-650
10310,-483
10311,-483
10312,-383
10313,-367
10314,-417
10315,-433
10316,-533
10317,-533
10318,-617
10319,-633
10320,-600
10321,-633
10322,-583
10323,-600
10324,-550
10325,-550
10326,-417
10327,-400
10328,-267
10329,-250
10330,-217
10331,-200
10332,-233
10333,-217
10334,-333
10335,-350
10336,-417
10337,-433
10338,-400
10339,-400
10340,-217
10341,-200
10342,300
10343,333
10344,683
10345,617
10346,17
10347,1717
10348,83
10349,-200
10350,1850
10351,1750
10352,-1483
10353,-1500
10354,-2183
10355,-1783
10356,-1067
10357,-1050
10358,-767
10359,-767
10360,-683
10361,-650
10362,-700
10363,-700
10364,-633
10365,-633
10366,-483
10367,-483
10368,-367
10369,-350
10370,-400
10371,-383
10372,-300
10373,-300
10374,-267
10375,-267
10376,-283
10377,-267
10378,-350
10379,-333
10380,-267
10381,-267
10382,-550
10383,-583
10384,-1317
10385,-1350
10386,-1467
10387,-1350
10388,-283
10389,-250
10390,450
10391,483
10392,667
10393,617
10394,283
10395,267
10396,-50
10397,-67
10398,-183
10399,-200
10400,-233
10401,-217
10402,-250
10403,-217
10404,-200
10405,-183
10406,-150
10407,-133
10408,-167
10409,-133
10410,-83
10411,-100
10412,-17
10413,-17
10414,17
10415,0
10416,50
10417,50
10418,117
10419,117
10420,183
10421,183
10422,250
10423,250
10424,300
10425,300
10426,267
10427,250
10428,150
10429,150
10430,17
10431,0
10432,-100
10433,-83
10434,-117
10435,-150
10436,-100
10437,-100
10438,-17
10439,-17
10440,83
10441,83
10442,200
10443,183
10444,217
10445,183
10446,50
10447,33
10448,-100
10449,-100
10450,-167
10451,-183
10452,-133
10453,-150
10454,-117
10455,-117
10456,-100
10457,-100
10458,-133
10459,-133
10460,-117
10461,-133
10462,-100
10463,-100
10464,-83
10465,-83
10466,-50
10467,-50
10468,-100
10469,-100
10470,-167
10471,-183
10472,-150
10473,-150
10474,-133
10475,-133
10476,-150
10477,-150
10478,-117
10479,-117
10480,-83
10481,-83
10482,-67
10483,-67
10484,0
10485,0
10486,50
10487,50
10488,117
10489,133
10490,200
10491,200
10492,417
10493,450
10494,983
10495,983
10496,-783
10497,-783
10498,-550
10499,-533
10500,-317
10501,-317
10502,-183
10503,-183
10504,-133
10505,-133
10506,-117
10507,-117
10508,-83
10509,-83
10510,-50
10511,-50
10512,17
10513,17
10514,100
10515,100
10516,200
10517,200
10518,233
10519,233
10520,267
10521,267
10522,283
10523,267
10524,200
10525,200
10526,100
10527,83
10528,-67
10529,-67
10530,-167
10531,-167
10532,-217
10533,-183
10534,-217
10535,-217
10536,-133
10537,-117
10538,0
10539,17
10540,133
10541,150
10542,217
10543,217
10544,150
10545,150
10546,133
10547,150
10548,133
10549,150
10550,117
10551,133
10552,117
10553,117
10554,100
10555,117
10556,200
10557,200
10558,133
10559,133
10560,83
10561,83
10562,17
10563,33
10564,0
10565,33
10566,83
10567,83
10568,117
10569,100
10570,133
10571,117
10572,150
10573,133
10574,183
10575,167
10576,150
10577,150
10578,117
10579,117
10580,83
10581,100
10582,67
10583,67
10584,83
10585,83
10586,100
10587,100
10588,133
10589,150
10590,117
10591,117
10592,67
10593,67
10594,133
10595,133
10596,167
10597,167
10598,83
10599,83
10600,-283
10601,-300
10602,-600
10603,-633
10604,-217
10605,-183
10606,450
10607,483
10608,417
10609,400
10610,317
10611,383
10612,500
10613,500
10614,583
10615,567
10616,667
10617,600
10618,567
10619,600
10620,567
10621,583
10622,550
10623,550
10624,600
10625,617
10626,683
10627,700
10628,733
10629,717
10630,667
10631,667
10632,617
10633,617
10634,550
10635,550
10636,500
10637,500
10638,467
10639,483
10640,433
10641,450
10642,417
10643,417
10644,333
10645,333
10646,267
10647,267
10648,233
10649,250
10650,283
10651,267
10652,317
10653,317
10654,383
10655,383
10656,367
10657,367
10658,400
10659,383
10660,417
10661,417
10662,500
10663,500
10664,467
10665,467
10666,450
10667,467
10668,417
10669,433
10670,383
10671,383
10672,350
10673,350
10674,367
10675,367
10676,317
10677,333
10678,300
10679,300
10680,283
10681,317
10682,283
10683,283
10684,217
10685,217
10686,150
10687,150
10688,67
10689,83
10690,50
10691,50
10692,67
10693,33
10694,200
10695,200
10696,550
10697,567
10698,733
10699,733
10700,750
10701,733
10702,750
10703,733
10704,683
10705,683
10706,700
10707,683
10708,750
10709,733
10710,1000
10711,1017
10712,1533
10713,1583
10714,2300
10715,2383
10716,783
10717,650
10718,-567
10719,-417
10720,300
10721,317
10722,1100
10723,1133
10724,1383
10725,1367
10726,1067
10727,1050
10728,567
10729,550
10730,167
10731,83
10732,167
10733,167
10734,300
10735,417
10736,-17
10737,-200
10738,1150
10739,783
10740,-683
10741,1200
10742,-1783
10743,-1750
10744,-2433
10745,-2317
10746,-1383
10747,-1350
10748,-1000
10749,-917
10750,-1017
10751,-1017
10752,-2000
10753,-2067
10754,-3033
10755,-2917
10756,-1500
10757,-1417
10758,-17
10759,17
10760,667
10761,700
10762,533
10763,533
10764,233
10765,217
10766,33
10767,17
10768,-50
10769,-50
10770,-67
10771,-67
10772,-150
10773,-150
10774,-233
10775,-233
10776,-300
10777,-317
10778,-300
10779,-317
10780,-283
10781,-267
10782,-300
10783,-267
10784,-300
10785,-300
10786,-317
10787,-300
10788,-267
10789,-283
10790,-233
10791,-233
10792,-200
10793,-200
10794,-167
10795,-167
10796,-150
10797,-167
10798,-150
10799,-133
10800,-167
10801,-167
10802,-150
10803,-167
10804,-200
10805,-217
10806,-183
10807,-217
10808,-183
10809,-200
10810,-233
10811,-233
10812,-217
10813,-233
10814,-183
10815,-183
10816,-67
10817,-50
10818,100
10819,100
10820,183
10821,183
10822,200
10823,183
10824,17
10825,17
10826,-300
10827,-317
10828,-467
10829,-467
10830,-450
10831,-450
10832,-367
10833,-383
10834,-333
10835,-333
10836,-300
10837,-283
10838,-317
10839,-300
10840,-367
10841,-367
10842,-383
10843,-400
10844,-367
10845,-383
10846,-417
10847,-417
10848,-483
10849,-483
10850,-450
10851,-450
10852,-417
10853,-400
10854,-317
10855,-317
10856,-150
10857,-150
10858,450
10859,583
10860,-1083
10861,-1150
10862,-783
10863,-750
10864,-350
10865,-333
10866,-67
10867,-50
10868,67
10869,50
10870,83
10871,83
10872,133
10873,83
10874,17
10875,17
10876,-67
10877,-67
10878,-83
10879,-83
10880,-67
10881,-83
10882,-117
10883,-117
10884,-150
10885,-150
10886,-183
10887,-183
10888,-250
10889,-233
10890,-283
10891,-283
10892,-267
10893,-300
10894,-217
10895,-217
10896,-150
10897,-150
10898,-183
10899,-183
10900,-167
10901,-150
10902,-200
10903,-200
10904,-283
10905,-267
10906,-367
10907,-367
10908,-300
10909,-300
10910,-233
10911,-233
10912,-83
10913,-100
10914,0
10915,0
10916,-50
10917,-50
10918,-150
10919,-167
10920,-367
10921,-367
10922,-750
10923,-767
10924,-1150
10925,-1200
10926,-933
10927,-900
10928,67
10929,100
10930,350
10931,333
10932,200
10933,183
10934,233
10935,233
10936,117
10937,100
10938,-33
10939,-50
10940,-233
10941,-233
10942,-250
10943,-233
10944,-267
10945,-250
10946,-267
10947,-233
10948,-283
10949,-283
10950,-267
10951,-267
10952,-300
10953,-283
10954,-333
10955,-317
10956,-283
10957,-283
10958,-217
10959,-217
10960,-117
10961,-117
10962,0
10963,-17
10964,-50
10965,-50
10966,-150
10967,-133
10968,-217
10969,-200
10970,-233
10971,-217
10972,-250
10973,-250
10974,-233
10975,-233
10976,-217
10977,-217
10978,-183
10979,-200
10980,-167
10981,-167
10982,-133
10983,-117
10984,-150
10985,-150
10986,-200
10987,-183
10988,-217
10989,-217
10990,-250
10991,-233
10992,-250
10993,-250
10994,-217
10995,-233
10996,-167
10997,-183
10998,-150
10999,-150
11000,-117
11001,-133
11002,-150
11003,-150
11004,-183
11005,-167
11006,-200
11007,-200
11008,-233
11009,1000
11010,-233
11011,-200
11012,-217
11013,-250
11014,-233
11015,-267
11016,-300
11017,-267
11018,-267
11019,-233
11020,-233
11021,-200
11022,-217
11023,-233
11024,-233
11025,-217
11026,-233
11027,-200
11028,-217
11029,-250
11030,-233
11031,-200
11032,-217
11033,-200
11034,-200
11035,-167
11036,-167
11037,-133
11038,-117
11039,-150
11040,-150
11041,-133
11042,-133
11043,-150
11044,-133
11045,-167
11046,-167
11047,-150
11048,-150
11049,-167
11050,-167
11051,-150
11052,-183
11053,-117
11054,-100
11055,-133
11056,-67
11057,-117
11058,-117
11059,-233
11060,-233
11061,-283
11062,-283
11063,-367
11064,-367
11065,-283
11066,-267
11067,-117
11068,-100
11069,-33
11070,-33
11071,-117
11072,-133
11073,-233
11074,-233
11075,-283
11076,-267
11077,-250
11078,-267
11079,-217
11080,-267
11081,-217
11082,-300
11083,-267
11084,-300
11085,-350
11086,-333
11087,-367
11088,-367
11089,-333
11090,-350
11091,-267
11092,-267
11093,-183
11094,-167
11095,-67
11096,-67
11097,50
11098,50
11099,-17
11100,-33
11101,0
11102,-33
11103,-100
11104,-100
11105,-167
11106,-183
11107,-150
11108,-167
11109,-200
11110,-200
11111,-183
11112,-200
11113,-133
11114,-133
11115,-83
11116,-67
11117,-100
11118,-83
11119,-117
11120,-117
11121,-100
11122,-117
11123,-167
11124,-167
11125,-200
11126,-183
11127,-200
11128,-183
11129,-217
11130,-200
11131,-250
11132,-233
11133,-267
11134,-250
11135,-283
11136,-300
11137,-250
11138,-267
11139,-200
11140,-183
11141,-83
11142,-83
11143,17
11144,0
11145,33
11146,33
11147,50
11148,33
11149,117
11150,117
11151,200
11152,217
11153,167
11154,167
11155,100
11156,100
11157,0
11158,0
11159,17
11160,0
11161,33
11162,33
11163,133
11164,150
11165,367
11166,383
11167,633
11168,633
11169,-100
11170,-133
11171,1517
11172,-83
11173,1383
11174,1600
11175,-1533
11176,-1383
11177,-1950
11178,-1700
11179,-850
11180,-833
11181,-500
11182,-500
11183,-400
11184,-400
11185,-350
11186,-417
11187,-900
11188,-933
11189,-1567
11190,-1583
11191,-1100
11192,-1033
11193,-117
11194,-83
11195,667
11196,683
11197,867
11198,850
11199,733
11200,700
11201,733
11202,700
11203,717
11204,700
11205,617
11206,617
11207,367
11208,350
11209,300
11210,317
11211,450
11212,467
11213,1017
11214,1050
11215,1917
11216,2117
11217,417
11218,283
11219,-533
11220,-583
11221,-983
11222,-533
11223,183
11224,183
11225,-300
11226,-300
11227,-17
11228,0
11229,300
11230,300
11231,-100
11232,-133
11233,-700
11234,-700
11235,-1000
11236,-1000
11237,-1033
11238,-1000
11239,-767
11240,-767
11241,-433
11242,-433
11243,-217
11244,-217
11245,-183
11246,-200
11247,-283
11248,-283
11249,-350
11250,-350
11251,-333
11252,-333
11253,-250
11254,-267
11255,-233
11256,-233
11257,-250
11258,-217
11259,-250
11260,-217
11261,-183
11262,-200
11263,-133
11264,-133
11265,-150
11266,-133
11267,-67
11268,-100
11269,17
11270,17
11271,133
11272,150
11273,567
11274,933
11275,500
11276,350
11277,-733
11278,-600
11279,-250
11280,-233
11281,-33
11282,-33
11283,67
11284,67
11285,133
11286,150
11287,200
11288,200
11289,167
11290,167
11291,117
11292,133
11293,33
11294,50
11295,0
11296,0
11297,33
11298,33
11299,0
11300,17
11301,33
11302,33
11303,67
11304,50
11305,100
11306,100
11307,117
11308,83
11309,133
11310,83
11311,117
11312,117
11313,83
11314,117
11315,183
11316,200
11317,250
11318,250
11319,200
11320,217
11321,183
11322,183
11323,117
11324,117
11325,83
11326,100
11327,50
11328,83
11329,133
11330,133
11331,117
11332,117
11333,133
11334,133
11335,0
11336,-17
11337,-417
11338,-433
11339,-967
11340,-983
11341,-1183
11342,-1033
11343,-200
11344,-167
11345,133
11346,133
11347,17
11348,0
11349,117
11350,117
11351,167
11352,167
11353,133
11354,167
11355,200
11356,200
11357,317
11358,333
11359,450
11360,467
11361,383
11362,383
11363,317
11364,317
11365,233
11366,250
11367,200
11368,200
11369,150
11370,133
11371,167
11372,150
11373,167
11374,183
11375,150
11376,167
11377,133
11378,133
11379,183
11380,183
11381,200
11382,200
11383,217
11384,233
11385,300
11386,283
11387,350
11388,350
11389,367
11390,367
11391,333
11392,333
11393,233
11394,233
11395,67
11396,67
11397,-133
11398,-133
11399,-300
11400,-300
11401,-483
11402,-467
11403,-533
11404,-533
11405,-467
11406,-467
11407,-267
11408,-250
11409,-17
11410,17
11411,-67
11412,-83
11413,-217
11414,-217
11415,-317
11416,-317
11417,-300
11418,-317
11419,-250
11420,-250
11421,-150
11422,-150
11423,-67
11424,-67
11425,17
11426,17
11427,67
11428,67
11429,150
11430,150
11431,300
11432,300
11433,367
11434,383
11435,333
11436,333
11437,267
11438,250
11439,183
11440,183
11441,117
11442,133
11443,67
11444,100
11445,67
11446,83
11447,100
11448,83
11449,117
11450,117
11451,133
11452,150
11453,117
11454,117
11455,150
11456,117
11457,67
11458,67
11459,0
11460,0
11461,-67
11462,-67
11463,-133
11464,-117
11465,-183
11466,-167
11467,-217
11468,-200
11469,-233
11470,-233
11471,-250
11472,-250
11473,-267
11474,-267
11475,-233
11476,-233
11477,-250
11478,-233
11479,-250
11480,-233
11481,-250
11482,-233
11483,-217
11484,-233
11485,-200
11486,-217
11487,-250
11488,-250
11489,-217
11490,-233
11491,-217
11492,-217
11493,-233
11494,-217
11495,-250
11496,-250
11497,-233
11498,-250
11499,-283
11500,-267
11501,-250
11502,-250
11503,-233
11504,-267
11505,-233
11506,-217
11507,-283
11508,-283
11509,-317
11510,-300
11511,-233
11512,-233
11513,-267
11514,-267
11515,-283
11516,-283
11517,-317
11518,-300
11519,-267
11520,-300
11521,-217
11522,-217
11523,-100
11524,-100
11525,100
11526,117
11527,317
11528,333
11529,517
11530,533
11531,750
11532,750
11533,833
11534,833
11535,917
11536,917
11537,733
11538,733
11539,-733
11540,-1000
11541,567
11542,-800
11543,767
11544,2133
11545,-667
11546,-250
11547,-883
11548,-883
11549,-433
11550,-433
11551,-233
11552,-233
11553,-267
11554,-283
11555,-367
11556,-367
11557,-417
11558,-400
11559,-367
11560,-367
11561,-250
11562,-250
11563,-167
11564,-167
11565,-133
11566,-150
11567,-67
11568,-67
11569,-50
11570,-50
11571,-100
11572,-100
11573,-200
11574,-217
11575,-233
11576,-233
11577,-217
11578,-233
11579,-250
11580,-250
11581,-200
11582,-200
11583,-133
11584,-133
11585,-83
11586,-83
11587,-67
11588,-33
11589,-83
11590,-83
11591,-117
11592,-133
11593,-167
11594,-167
11595,-200
11596,-183
11597,-133
11598,-150
11599,-133
11600,-117
11601,-150
11602,-133
11603,-83
11604,-83
11605,-50
11606,-50
11607,-67
11608,-50
11609,17
11610,17
11611,83
11612,83
11613,133
11614,133
11615,100
11616,100
11617,-83
11618,-83
11619,-267
11620,-267
11621,-433
11622,-433
11623,-383
11624,-383
11625,-233
11626,-217
11627,-133
11628,-133
11629,-83
11630,-83
11631,-50
11632,-67
11633,-33
11634,-50
11635,-83
11636,-50
11637,-67
11638,-67
11639,-117
11640,-100
11641,-117
11642,-117
11643,-83
11644,-100
11645,-50
11646,-50
11647,17
11648,33
11649,50
11650,17
11651,50
11652,50
11653,0
11654,17
11655,-83
11656,-83
11657,-200
11658,-200
11659,-267
11660,-267
11661,-300
11662,-283
11663,-250
11664,-267
11665,-233
11666,-233
11667,-183
11668,-167
11669,-200
11670,-167
11671,-133
11672,-133
11673,-150
11674,-133
11675,-117
11676,-117
11677,-150
11678,-133
11679,-150
11680,-150
11681,-117
11682,-117
11683,-133
11684,-100
11685,-133
11686,-133
11687,-167
11688,-150
11689,-250
11690,-250
11691,-367
11692,-350
11693,-417
11694,-417
11695,-450
11696,-450
11697,-417
11698,-417
11699,-383
11700,-400
11701,-367
11702,-383
11703,-350
11704,-350
11705,-367
11706,-350
11707,-150
11708,-150
11709,167
11710,183
11711,517
11712,533
11713,1100
11714,1333
11715,67
11716,-67
11717,-400
11718,-117
11719,417
11720,450
11721,783
11722,800
11723,1283
11724,1300
11725,1933
11726,1867
11727,2483
11728,2183
11729,-150
11730,-133
11731,367
11732,400
11733,833
11734,850
11735,1167
11736,1167
11737,533
11738,483
11739,-467
11740,-483
11741,-200
11742,-167
11743,217
11744,217
11745,0
11746,-17
11747,-417
11748,-433
11749,-767
11750,-767
11751,-1000
11752,-1000
11753,-1067
11754,-1067
11755,-967
11756,-967
11757,-733
11758,-717
11759,-550
11760,-533
11761,-467
11762,-467
11763,-433
11764,-433
11765,-417
11766,-400
11767,-300
11768,-300
11769,-133
11770,-133
11771,-50
11772,-33
11773,-167
11774,-183
11775,-583
11776,-583
11777,-717
11778,-617
11779,100
11780,117
11781,350
11782,333
11783,167
11784,133
11785,217
11786,217
11787,317
11788,317
11789,350
11790,400
11791,300
11792,300
11793,167
11794,150
11795,-67
11796,-67
11797,-283
11798,-283
11799,-383
11800,-383
11801,-417
11802,-383
11803,-267
11804,-267
11805,-100
11806,-100
11807,67
11808,67
11809,150
11810,150
11811,217
11812,217
11813,250
11814,233
11815,200
11816,183
11817,133
11818,117
11819,0
11820,0
11821,-67
11822,-67
11823,-83
11824,-67
11825,67
11826,83
11827,300
11828,317
11829,417
11830,417
11831,383
11832,400
11833,333
11834,383
11835,350
11836,350
11837,383
11838,417
11839,367
11840,350
11841,150
11842,133
11843,17
11844,0
11845,33
11846,17
11847,-33
11848,-33
11849,17
11850,0
11851,67
11852,67
11853,150
11854,150
11855,217
11856,233
11857,183
11858,183
11859,100
11860,83
11861,-367
11862,-400
11863,-1183
11864,-1217
11865,-883
11866,-833
11867,250
11868,283
11869,1033
11870,1150
11871,1033
11872,1017
11873,633
11874,617
11875,383
11876,367
11877,267
11878,267
11879,233
11880,233
11881,167
11882,167
11883,117
11884,100
11885,133
11886,150
11887,233
11888,233
11889,267
11890,267
11891,350
11892,350
11893,433
11894,433
11895,550
11896,550
11897,883
11898,900
11899,1117
11900,1067
11901,433
11902,1933
11903,367
11904,300
11905,2167
11906,1083
11907,-1417
11908,-1233
11909,-1867
11910,-1483
11911,-800
11912,-783
11913,-533
11914,-533
11915,-467
11916,-467
11917,-433
11918,-450
11919,-417
11920,-417
11921,-383
11922,-383
11923,-333
11924,-333
11925,-267
11926,-267
11927,-200
11928,-217
11929,-183
11930,-183
11931,-133
11932,-133
11933,-117
11934,-133
11935,-83
11936,-67
11937,-17
11938,-50
11939,0
11940,0
11941,-17
11942,-17
11943,0
11944,-17
11945,-50
11946,-50
11947,-133
11948,-133
11949,-200
11950,-183
11951,-133
11952,-150
11953,-167
11954,-167
11955,-133
11956,-150
11957,-117
11958,-117
11959,-100
11960,-117
11961,-150
11962,-150
11963,-133
11964,-150
11965,-117
11966,-133
11967,-67
11968,-83
11969,0
11970,0
11971,133
11972,150
11973,100
11974,100
11975,67
11976,67
11977,33
11978,50
11979,17
11980,17
11981,0
11982,0
11983,33
11984,17
11985,67
11986,50
11987,67
11988,50
11989,150
11990,167
11991,267
11992,267
11993,317
11994,317
11995,267
11996,267
11997,200
11998,200
11999,167
12000,167
12001,100
12002,117
12003,83
12004,100
12005,67
12006,67
12007,17
12008,17
12009,-67
12010,1000
12011,-67
12012,-117
12013,-117
12014,-183
12015,-183
12016,-150
12017,-183
12018,-150
12019,-133
12020,-117
12021,-133
12022,-100
12023,-100
12024,-50
12025,-33
12026,-67
12027,-33
12028,0
12029,0
12030,33
12031,33
12032,67
12033,50
12034,67
12035,67
12036,33
12037,33
12038,17
12039,33
12040,17
12041,17
12042,-17
12043,0
12044,-33
12045,-17
12046,-67
12047,-67
12048,-83
12049,-83
12050,-100
12051,-100
12052,-150
12053,-167
12054,-200
12055,-200
12056,-233
12057,-233
12058,-167
12059,-167
12060,-100
12061,-117
12062,-67
12063,-67
12064,-83
12065,-67
12066,-33
12067,-33
12068,-17
12069,-17
12070,0
12071,-17
12072,17
12073,0
12074,17
12075,0
12076,33
12077,17
12078,50
12079,67
12080,133
12081,150
12082,167
12083,167
12084,83
12085,83
12086,-100
12087,-117
12088,-417
12089,-417
12090,-633
12091,-650
12092,-767
12093,-750
12094,-667
12095,-650
12096,-500
12097,-500
12098,-383
12099,-383
12100,-367
12101,-383
12102,-450
12103,-450
12104,-500
12105,-467
12106,-500
12107,-517
12108,-467
12109,-467
12110,-367
12111,-367
12112,-267
12113,-283
12114,-217
12115,-217
12116,-200
12117,-217
12118,-167
12119,-133
12120,-183
12121,-150
12122,-233
12123,-233
12124,-300
12125,-300
12126,-383
12127,-383
12128,-333
12129,-350
12130,-317
12131,-300
12132,-333
12133,-300
12134,-350
12135,-350
12136,-383
12137,-350
12138,-33
12139,183
12140,-1183
12141,-1300
12142,-1583
12143,-1383
12144,-933
12145,-917
12146,-633
12147,-633
12148,-467
12149,-467
12150,-417
12151,-417
12152,-367
12153,-400
12154,-483
12155,-467
12156,-533
12157,-533
12158,-567
12159,-533
12160,-467
12161,-450
12162,-683
12163,-717
12164,-1100
12165,-1150
12166,-883
12167,-867
12168,-100
12169,-83
12170,-17
12171,-67
12172,17
12173,33
12174,483
12175,500
12176,917
12177,933
12178,1317
12179,1700
12180,1067
12181,967
12182,-933
12183,-800
12184,450
12185,467
12186,917
12187,917
12188,1150
12189,1117
12190,700
12191,683
12192,-17
12193,-33
12194,-683
12195,-700
12196,-1117
12197,-1150
12198,-1400
12199,-1417
12200,-1583
12201,-1617
12202,-1567
12203,-1583
12204,-1950
12205,-1983
12206,-2383
12207,-2217
12208,-1400
12209,-1350
12210,-583
12211,-583
12212,-433
12213,-450
12214,-567
12215,-567
12216,-683
12217,-683
12218,-783
12219,-783
12220,-833
12221,-800
12222,-733
12223,-733
12224,-583
12225,-583
12226,-550
12227,-567
12228,-583
12229,-583
12230,-617
12231,-600
12232,-533
12233,-517
12234,-433
12235,-417
12236,-283
12237,-267
12238,-333
12239,-350
12240,-833
12241,-867
12242,-1550
12243,-1550
12244,-1067
12245,-1000
12246,33
12247,67
12248,833
12249,867
12250,983
12251,917
12252,617
12253,600
12254,400
12255,400
12256,350
12257,350
12258,400
12259,400
12260,600
12261,600
12262,900
12263,1067
12264,817
12265,783
12266,83
12267,2300
12268,683
12269,683
12270,2600
12271,433
12272,-1533
12273,-1083
12274,-1717
12275,-1400
12276,-767
12277,-750
12278,-483
12279,-483
12280,-383
12281,-367
12282,-283
12283,-283
12284,-367
12285,-383
12286,-433
12287,-450
12288,-417
12289,-417
12290,-350
12291,-350
12292,-233
12293,-233
12294,-117
12295,-100
12296,33
12297,33
12298,167
12299,167
12300,233
12301,233
12302,283
12303,300
12304,267
12305,267
12306,233
12307,233
12308,200
12309,183
12310,217
12311,233
12312,267
12313,267
12314,350
12315,367
12316,400
12317,400
12318,383
12319,400
12320,483
12321,483
12322,533
12323,517
12324,550
12325,550
12326,583
12327,583
12328,600
12329,600
12330,483
12331,500
12332,450
12333,433
12334,300
12335,317
12336,200
12337,183
12338,117
12339,100
12340,167
12341,167
12342,217
12343,233
12344,317
12345,317
12346,400
12347,400
12348,417
12349,400
12350,433
12351,400
12352,467
12353,467
12354,567
12355,567
12356,700
12357,717
12358,883
12359,883
12360,983
12361,983
12362,917
12363,900
12364,833
12365,833
12366,767
12367,750
12368,633
12369,633
12370,533
12371,533
12372,417
12373,433
12374,400
12375,400
12376,383
12377,400
12378,367
12379,367
12380,333
12381,350
12382,333
12383,350
12384,317
12385,333
12386,300
12387,283
12388,317
12389,317
12390,367
12391,367
12392,483
12393,483
12394,533
12395,533
12396,500
12397,500
12398,467
12399,467
12400,433
12401,433
12402,383
12403,400
12404,367
12405,367
12406,350
12407,350
12408,367
12409,333
12410,367
12411,350
12412,367
12413,367
12414,350
12415,350
12416,367
12417,367
12418,417
12419,433
12420,483
12421,483
12422,517
12423,483
12424,383
12425,383
12426,183
12427,183
12428,0
12429,-17
12430,-133
12431,-117
12432,-83
12433,-83
12434,33
12435,33
12436,67
12437,83
12438,50
12439,83
12440,50
12441,67
12442,117
12443,100
12444,117
12445,117
12446,167
12447,150
12448,233
12449,250
12450,217
12451,267
12452,233
12453,250
12454,217
12455,217
12456,150
12457,167
12458,117
12459,117
12460,67
12461,67
12462,83
12463,83
12464,150
12465,150
12466,267
12467,267
12468,350
12469,350
12470,433
12471,433
12472,400
12473,400
12474,300
12475,300
12476,217
12477,217
12478,200
12479,217
12480,200
12481,217
12482,233
12483,233
12484,300
12485,317
12486,333
12487,317
12488,250
12489,250
12490,183
12491,183
12492,133
12493,150
12494,100
12495,117
12496,83
12497,83
12498,50
12499,67
12500,100
12501,117
12502,167
12503,183
12504,133
12505,150
12506,133
12507,133
12508,33
12509,50
12510,-117
12511,-117
12512,-450
12513,-450
12514,-167
12515,-117
12516,-1500
12517,-1350
12518,-350
12519,-317
12520,17
12521,17
12522,100
12523,133
12524,83
12525,83
12526,-50
12527,-83
12528,0
12529,-17
12530,83
12531,83
12532,133
12533,133
12534,117
12535,117
12536,150
12537,133
12538,200
12539,217
12540,183
12541,183
12542,-50
12543,-67
12544,-367
12545,-383
12546,-567
12547,-567
12548,-400
12549,-383
12550,-33
12551,-17
12552,133
12553,133
12554,200
12555,200
12556,167
12557,183
12558,83
12559,117
12560,33
12561,33
12562,67
12563,67
12564,117
12565,100
12566,133
12567,117
12568,133
