0,-234
1,-240
2,-246
3,-239
4,-244
5,-241
6,-240
7,-238
8,-238
9,-241
10,-242
11,-240
12,-241
13,-240
14,-242
15,-237
16,-239
17,-248
18,-237
19,-238
20,-240
21,-235
22,-237
23,-237
24,-239
25,-236
26,-239
27,-234
28,-235
29,-239
30,-244
31,-240
32,-241
33,-241
34,-238
35,-240
36,-241
37,-242
38,-238
39,-238
40,-235
41,-239
42,-233
43,-232
44,-240
45,-238
46,-236
47,-240
48,-239
49,-235
50,-235
51,-236
52,-236
53,-238
54,-237
55,-237
56,-233
57,-236
58,-239
59,-237
60,-237
61,-236
62,-242
63,-237
64,-240
65,-241
66,-239
67,-237
68,-236
69,-235
70,-236
71,-233
72,-230
73,-233
74,-232
75,-240
76,-234
77,-237
78,-237
79,-240
80,-242
81,-236
82,-232
83,-237
84,-237
85,-236
86,-237
87,-238
88,-239
89,-239
90,-238
91,-238
92,-239
93,-234
94,-232
95,-235
96,-237
97,-236
98,-243
99,-240
100,-239
101,-233
102,-232
103,-233
104,-237
105,-234
106,-229
107,-238
108,-237
109,-238
110,-236
111,-237
112,-233
113,-232
114,-231
115,-235
116,-234
117,-231
118,-232
119,-228
120,-233
121,-232
122,-230
123,-229
124,-227
125,-225
126,-223
127,-224
128,-221
129,-222
130,-220
131,-222
132,-218
133,-223
134,-221
135,-222
136,-227
137,-219
138,-218
139,-226
140,-226
141,-231
142,-234
143,-234
144,-233
145,-235
146,-232
147,-234
148,-237
149,-241
150,-227
151,-228
152,-236
153,-238
154,-239
155,-236
156,-239
157,-236
158,-236
159,-234
160,-235
161,-236
162,-240
163,-236
164,-236
165,-236
166,-239
167,-231
168,-232
169,-235
170,-236
171,-235
172,-234
173,-239
174,-239
175,-242
176,-237
177,-237
178,-241
179,-238
180,-239
181,-244
182,-249
183,-250
184,-256
185,-263
186,-271
187,-277
188,-276
189,-273
190,-263
191,-245
192,-225
193,-195
194,-165
195,-142
196,-111
197,-90
198,-58
199,-34
200,-22
201,-33
202,-48
203,-57
204,-76
205,-87
206,-102
207,-139
208,-163
209,-173
210,-185
211,-189
212,-197
213,-203
214,-203
215,-218
216,-220
217,-224
218,-227
219,-225
220,-224
221,-228
222,-226
223,-231
224,-230
225,-230
226,-233
227,-232
228,-235
229,-230
230,-228
231,-235
232,-231
233,-236
234,-232
235,-231
236,-233
237,-235
238,-237
239,-234
240,-229
241,-230
242,-235
243,-238
244,-231
245,-234
246,-235
247,-231
248,-234
249,-237
250,-229
251,-230
252,-232
253,-231
254,-231
255,-230
256,-232
257,-233
258,-227
259,-226
260,-232
261,-230
262,-231
263,-231
264,-231
265,-230
266,-228
267,-226
268,-227
269,-227
270,-230
271,-230
272,-226
273,-229
274,-224
275,-228
276,-228
277,-228
278,-226
279,-225
280,-227
281,-223
282,-224
283,-223
284,-223
285,-224
286,-222
287,-223
288,-218
289,-221
290,-217
291,-216
292,-220
293,-214
294,-215
295,-217
296,-212
297,-218
298,-212
299,-211
300,-210
301,-213
302,-207
303,-209
304,-209
305,-208
306,-206
307,-202
308,-203
309,-196
310,-194
311,-201
312,-199
313,-201
314,-200
315,-200
316,-197
317,-194
318,-197
319,-201
320,-197
321,-188
322,-189
323,-201
324,-196
325,-193
326,-195
327,-196
328,-196
329,-195
330,-196
331,-203
332,-204
333,-204
334,-204
335,-205
336,-207
337,-205
338,-203
339,-209
340,-214
341,-211
342,-211
343,-212
344,-214
345,-218
346,-228
347,-217
348,-219
349,-220
350,-221
351,-217
352,-211
353,-213
354,-226
355,-225
356,-225
357,-224
358,-223
359,-217
360,-224
361,-229
362,-226
363,-227
364,-224
365,-224
366,-223
367,-223
368,-220
369,-226
370,-219
371,-224
372,-227
373,-220
374,-223
375,-221
376,-227
377,-220
378,-227
379,-223
380,-225
381,-222
382,-223
383,-226
384,-223
385,-220
386,-224
387,-223
388,-226
389,-228
390,-226
391,-226
392,-228
393,-218
394,-219
395,-222
396,-224
397,-223
398,-226
399,-223
400,-221
401,-221
402,-221
403,-221
404,-226
405,-227
406,-230
407,-218
408,-219
409,-221
410,-224
411,-218
412,-223
413,-222
414,-223
415,-226
416,-227
417,-224
418,-221
419,-225
420,-223
421,-215
422,-218
423,-219
424,-223
425,-221
426,-224
427,-219
428,-221
429,-221
430,-222
431,-223
432,-221
433,-222
434,-225
435,-224
436,-221
437,-220
438,-221
439,-220
440,-225
441,-223
442,-221
443,-220
444,-220
445,-217
446,-223
447,-221
448,-222
449,-220
450,-221
451,-224
452,-223
453,-217
454,-220
455,-220
456,-221
457,-219
458,-218
459,-223
460,-218
461,-223
462,-223
463,-221
464,-221
465,-222
466,-222
467,-217
468,-229
469,-223
470,-225
471,-224
472,-227
473,-219
474,-220
475,-221
476,-218
477,-219
478,-219
479,-223
480,-224
481,-224
482,-221
483,-220
484,-222
485,-223
486,-220
487,-220
488,-217
489,-221
490,-220
491,-218
492,-222
493,-220
494,-226
495,-224
496,-222
497,-222
498,-220
499,-219
500,-222
501,-219
502,-218
503,-217
504,-218
505,-216
506,-218
507,-216
508,-217
509,-218
510,-213
511,-217
512,-217
513,-211
514,-215
515,-212
516,-219
517,-218
518,-212
519,-207
520,-205
521,-211
522,-209
523,-206
524,-203
525,-204
526,-208
527,-203
528,-204
529,-202
530,-205
531,-209
532,-204
533,-212
534,-217
535,-217
536,-219
537,-220
538,-216
539,-216
540,-216
541,-216
542,-216
543,-217
544,-217
545,-220
546,-214
547,-221
548,-225
549,-223
550,-216
551,-219
552,-222
553,-220
554,-220
555,-218
556,-216
557,-222
558,-221
559,-216
560,-219
561,-224
562,-221
563,-223
564,-221
565,-226
566,-227
567,-225
568,-220
569,-223
570,-221
571,-220
572,-221
573,-222
574,-223
575,-229
576,-225
577,-235
578,-232
579,-246
580,-254
581,-258
582,-265
583,-265
584,-261
585,-250
586,-230
587,-203
588,-176
589,-148
590,-117
591,-89
592,-67
593,-42
594,-22
595,-17
596,-21
597,-32
598,-47
599,-66
600,-75
601,-93
602,-127
603,-149
604,-160
605,-173
606,-176
607,-181
608,-190
609,-196
610,-199
611,-205
612,-213
613,-218
614,-215
615,-217
616,-218
617,-215
618,-214
619,-213
620,-218
621,-220
622,-222
623,-219
624,-223
625,-222
626,-222
627,-225
628,-222
629,-214
630,-220
631,-225
632,-221
633,-222
634,-220
635,-217
636,-221
637,-221
638,-220
639,-221
640,-225
641,-221
642,-222
643,-222
644,-222
645,-222
646,-219
647,-223
648,-222
649,-216
650,-222
651,-220
652,-224
653,-216
654,-218
655,-220
656,-223
657,-218
658,-217
659,-218
660,-215
661,-214
662,-218
663,-220
664,-217
665,-217
666,-225
667,-222
668,-217
669,-219
670,-218
671,-208
672,-215
673,-213
674,-215
675,-217
676,-210
677,-212
678,-212
679,-213
680,-218
681,-211
682,-215
683,-209
684,-205
685,-203
686,-210
687,-209
688,-206
689,-203
690,-207
691,-206
692,-205
693,-199
694,-198
695,-198
696,-202
697,-203
698,-199
699,-193
700,-199
701,-199
702,-192
703,-195
704,-198
705,-191
706,-188
707,-185
708,-185
709,-186
710,-182
711,-190
712,-185
713,-189
714,-187
715,-187
716,-186
717,-187
718,-188
719,-177
720,-183
721,-187
722,-190
723,-191
724,-190
725,-194
726,-193
727,-195
728,-198
729,-190
730,-189
731,-192
732,-196
733,-196
734,-199
735,-199
736,-202
737,-199
738,-202
739,-206
740,-206
741,-204
742,-210
743,-212
744,-209
745,-208
746,-207
747,-211
748,-211
749,-207
750,-212
751,-211
752,-213
753,-214
754,-213
755,-209
756,-213
757,-214
758,-217
759,-217
760,-216
761,-216
762,-215
763,-215
764,-217
765,-211
766,-215
767,-216
768,-214
769,-212
770,-215
771,-210
772,-210
773,-215
774,-217
775,-215
776,-214
777,-214
778,-215
779,-216
780,-213
781,-208
782,-211
783,-215
784,-218
785,-208
786,-212
787,-214
788,-212
789,-213
790,-216
791,-216
792,-217
793,-215
794,-216
795,-216
796,-214
797,-214
798,-212
799,-215
800,-215
801,-212
802,-219
803,-219
804,-213
805,-211
806,-218
807,-215
808,-213
809,-216
810,-214
811,-214
812,-209
813,-210
814,-215
815,-215
816,-211
817,-212
818,-210
819,-213
820,-212
821,-214
822,-214
823,-215
824,-212
825,-214
826,-216
827,-211
828,-212
829,-215
830,-214
831,-214
832,-215
833,-211
834,-217
835,-218
836,-213
837,-216
838,-215
839,-212
840,-213
841,-209
842,-210
843,-212
844,-212
845,-214
846,-213
847,-211
848,-212
849,-214
850,-213
851,-212
852,-213
853,-214
854,-216
855,-217
856,-213
857,-212
858,-214
859,-214
860,-214
861,-221
862,-210
863,-215
864,-217
865,-217
866,-213
867,-215
868,-215
869,-214
870,-215
871,-214
872,-215
873,-212
874,-217
875,-214
876,-211
877,-209
878,-208
879,-212
880,-214
881,-213
882,-213
883,-219
884,-213
885,-214
886,-218
887,-214
888,-212
889,-213
890,-214
891,-216
892,-217
893,-214
894,-212
895,-212
896,-218
897,-218
898,-218
899,-216
900,-214
901,-213
902,-214
903,-214
904,-215
905,-216
906,-216
907,-211
908,-210
909,-217
910,-215
911,-216
912,-211
913,-213
914,-212
915,-212
916,-215
917,-217
918,-217
919,-215
920,-209
921,-211
922,-213
923,-209
924,-214
925,-214
926,-209
927,-209
928,-205
929,-207
930,-207
931,-209
932,-206
933,-205
934,-205
935,-202
936,-201
937,-200
938,-200
939,-196
940,-199
941,-200
942,-199
943,-199
944,-197
945,-199
946,-204
947,-206
948,-206
949,-206
950,-208
951,-210
952,-215
953,-214
954,-215
955,-216
956,-210
957,-209
958,-211
959,-213
960,-215
961,-216
962,-214
963,-212
964,-213
965,-213
966,-214
967,-216
968,-214
969,-214
970,-218
971,-219
972,-217
973,-216
974,-219
975,-218
976,-213
977,-217
978,-220
979,-219
980,-221
981,-218
982,-219
983,-218
984,-217
985,-221
986,-217
987,-221
988,-220
989,-218
990,-221
991,-227
992,-232
993,-237
994,-242
995,-248
996,-254
997,-260
998,-259
999,-259
1000,-242
1001,-223
1002,-204
1003,-173
1004,-137
1005,-107
1006,-76
1007,-48
1008,-17
1009,1
1010,4
1011,-7
1012,-20
1013,-26
1014,-49
1015,-59
1016,-80
1017,-109
1018,-138
1019,-153
1020,-161
1021,-170
1022,-180
1023,-185
1024,-194
1025,-194
1026,-202
1027,-209
1028,-209
1029,-214
1030,-212
1031,-211
1032,-216
1033,-219
1034,-215
1035,-219
1036,-217
1037,-217
1038,-215
1039,-215
1040,-218
1041,-219
1042,-218
1043,-222
1044,-219
1045,-221
1046,-222
1047,-220
1048,-214
1049,-221
1050,-223
1051,-221
1052,-220
1053,-222
1054,-220
1055,-221
1056,-220
1057,-220
1058,-222
1059,-221
1060,-223
1061,-219
1062,-222
1063,-220
1064,-222
1065,-218
1066,-217
1067,-217
1068,-221
1069,-217
1070,-219
1071,-218
1072,-222
1073,-220
1074,-219
1075,-216
1076,-217
1077,-216
1078,-217
1079,-213
1080,-216
1081,-219
1082,-218
1083,-214
1084,-216
1085,-215
1086,-216
1087,-217
1088,-219
1089,-214
1090,-216
1091,-218
1092,-218
1093,-215
1094,-213
1095,-212
1096,-206
1097,-212
1098,-212
1099,-211
1100,-210
1101,-210
1102,-213
1103,-206
1104,-207
1105,-204
1106,-201
1107,-203
1108,-210
1109,-201
1110,-203
1111,-203
1112,-196
1113,-198
1114,-196
1115,-196
1116,-196
1117,-196
1118,-198
1119,-191
1120,-186
1121,-187
1122,-187
1123,-187
1124,-186
1125,-185
1126,-186
1127,-183
1128,-188
1129,-185
1130,-183
1131,-184
1132,-182
1133,-181
1134,-184
1135,-181
1136,-183
1137,-185
1138,-185
1139,-184
1140,-186
1141,-188
1142,-189
1143,-189
1144,-193
1145,-193
1146,-192
1147,-194
1148,-197
1149,-203
1150,-197
1151,-198
1152,-200
1153,-200
1154,-204
1155,-201
1156,-207
1157,-205
1158,-208
1159,-206
1160,-204
1161,-211
1162,-219
1163,-214
1164,-205
1165,-207
1166,-202
1167,-206
1168,-213
1169,-211
1170,-216
1171,-216
1172,-212
1173,-211
1174,-211
1175,-213
1176,-212
1177,-208
1178,-210
1179,-215
1180,-211
1181,-213
1182,-213
1183,-211
1184,-214
1185,-211
1186,-209
1187,-212
1188,-212
1189,-211
1190,-212
1191,-208
1192,-208
1193,-211
1194,-211
1195,-211
1196,-213
1197,-209
1198,-211
1199,-209
1200,-209
1201,-213
1202,-214
1203,-210
1204,-211
1205,-203
1206,-206
1207,-210
1208,-207
1209,-213
1210,-212
1211,-212
1212,-207
1213,-209
1214,-206
1215,-208
1216,-210
1217,-212
1218,-212
1219,-208
1220,-206
1221,-207
1222,-209
1223,-205
1224,-210
1225,-206
1226,-211
1227,-208
1228,-208
1229,-208
1230,-210
1231,-207
1232,-206
1233,-206
1234,-208
1235,-207
1236,-207
1237,-208
1238,-209
1239,-209
1240,-210
1241,-205
1242,-206
1243,-204
1244,-207
1245,-212
1246,-207
1247,-207
1248,-207
1249,-209
1250,-208
1251,-210
1252,-210
1253,-207
1254,-208
1255,-209
1256,-206
1257,-209
1258,-210
1259,-210
1260,-209
1261,-204
1262,-205
1263,-206
1264,-205
1265,-208
1266,-205
1267,-205
1268,-205
1269,-203
1270,-210
1271,-213
1272,-209
1273,-208
1274,-209
1275,-205
1276,-210
1277,-209
1278,-210
1279,-204
1280,-207
1281,-208
1282,-212
1283,-208
1284,-204
1285,-203
1286,-204
1287,-211
1288,-208
1289,-206
1290,-210
1291,-210
1292,-212
1293,-209
1294,-209
1295,-210
1296,-214
1297,-216
1298,-210
1299,-207
1300,-209
1301,-209
1302,-209
1303,-209
1304,-201
1305,-207
1306,-213
1307,-212
1308,-210
1309,-206
1310,-211
1311,-211
1312,-210
1313,-211
1314,-215
1315,-210
1316,-209
1317,-211
1318,-212
1319,-208
1320,-207
1321,-208
1322,-215
1323,-209
1324,-211
1325,-210
1326,-211
1327,-211
1328,-209
1329,-213
1330,-210
1331,-214
1332,-212
1333,-208
1334,-214
1335,-207
1336,-214
1337,-209
1338,-209
1339,-209
1340,-213
1341,-211
1342,-210
1343,-209
1344,-204
1345,-207
1346,-207
1347,-207
1348,-207
1349,-214
1350,-205
1351,-211
1352,-207
1353,-202
1354,-205
1355,-206
1356,-203
1357,-204
1358,-204
1359,-200
1360,-201
1361,-198
1362,-196
1363,-198
1364,-197
1365,-197
1366,-192
1367,-199
1368,-198
1369,-200
1370,-195
1371,-196
1372,-194
1373,-189
1374,-201
1375,-200
1376,-195
1377,-203
1378,-205
1379,-212
1380,-210
1381,-208
1382,-212
1383,-209
1384,-207
1385,-210
1386,-211
1387,-213
1388,-210
1389,-212
1390,-213
1391,-207
1392,-211
1393,-212
1394,-210
1395,-214
1396,-214
1397,-218
1398,-219
1399,-216
1400,-215
1401,-211
1402,-209
1403,-214
1404,-212
1405,-214
1406,-212
1407,-212
1408,-208
1409,-217
1410,-218
1411,-211
1412,-213
1413,-212
1414,-217
1415,-214
1416,-214
1417,-217
1418,-217
1419,-220
1420,-226
1421,-233
1422,-237
1423,-250
1424,-254
1425,-261
1426,-257
1427,-256
1428,-242
1429,-218
1430,-194
1431,-167
1432,-129
1433,-94
1434,-59
1435,-29
1436,-1
1437,19
1438,22
1439,15
1440,1
1441,-10
1442,-33
1443,-47
1444,-69
1445,-98
1446,-123
1447,-143
1448,-151
1449,-165
1450,-173
1451,-175
1452,-186
1453,-189
1454,-193
1455,-204
1456,-203
1457,-203
1458,-205
1459,-210
1460,-204
1461,-207
1462,-207
1463,-209
1464,-214
1465,-213
1466,-213
1467,-214
1468,-214
1469,-215
1470,-213
1471,-213
1472,-217
1473,-215
1474,-214
1475,-214
1476,-214
1477,-215
1478,-219
1479,-215
1480,-214
1481,-215
1482,-212
1483,-212
1484,-220
1485,-215
1486,-216
1487,-219
1488,-214
1489,-214
1490,-213
1491,-212
1492,-214
1493,-208
1494,-213
1495,-215
1496,-215
1497,-216
1498,-213
1499,-212
1500,-212
1501,-215
1502,-217
1503,-215
1504,-214
1505,-212
1506,-215
1507,-215
1508,-212
1509,-213
1510,-213
1511,-208
1512,-208
1513,-208
1514,-208
1515,-206
1516,-209
1517,-197
1518,-208
1519,-212
1520,-206
1521,-204
1522,-210
1523,-210
1524,-205
1525,-203
1526,-205
1527,-206
1528,-206
1529,-208
1530,-199
1531,-200
1532,-199
1533,-199
1534,-202
1535,-199
1536,-201
1537,-197
1538,-195
1539,-195
1540,-189
1541,-190
1542,-193
1543,-192
1544,-188
1545,-187
1546,-186
1547,-182
1548,-181
1549,-185
1550,-183
1551,-179
1552,-185
1553,-188
1554,-183
1555,-178
1556,-181
1557,-180
1558,-180
1559,-177
1560,-177
1561,-178
1562,-179
1563,-177
1564,-177
1565,-183
1566,-183
1567,-187
1568,-185
1569,-183
1570,-180
1571,-180
1572,-184
1573,-184
1574,-184
1575,-187
1576,-189
1577,-195
1578,-197
1579,-197
1580,-196
1581,-193
1582,-199
1583,-200
1584,-201
1585,-203
1586,-204
1587,-207
1588,-206
1589,-205
1590,-208
1591,-206
1592,-206
1593,-209
1594,-208
1595,-209
1596,-207
1597,-213
1598,-212
1599,-207
1600,-208
1601,-210
1602,-209
1603,-211
1604,-210
1605,-209
1606,-211
1607,-213
1608,-214
1609,-212
1610,-213
1611,-213
1612,-211
1613,-212
1614,-209
1615,-204
1616,-210
1617,-209
1618,-209
1619,-210
1620,-210
1621,-210
1622,-207
1623,-209
1624,-211
1625,-209
1626,-207
1627,-213
1628,-212
1629,-205
1630,-202
1631,-211
1632,-213
1633,-212
1634,-212
1635,-214
1636,-215
1637,-212
1638,-215
1639,-210
1640,-210
1641,-213
1642,-215
1643,-212
1644,-214
1645,-212
1646,-212
1647,-213
1648,-213
1649,-211
1650,-212
1651,-209
1652,-213
1653,-209
1654,-211
1655,-212
1656,-213
1657,-211
1658,-212
1659,-209
1660,-213
1661,-213
1662,-210
1663,-208
1664,-209
1665,-209
1666,-212
1667,-213
1668,-212
1669,-211
1670,-209
1671,-210
1672,-208
1673,-208
1674,-214
1675,-214
1676,-212
1677,-211
1678,-212
1679,-212
1680,-209
1681,-211
1682,-211
1683,-213
1684,-213
1685,-214
1686,-209
1687,-208
1688,-212
1689,-210
1690,-210
1691,-213
1692,-210
1693,-210
1694,-206
1695,-208
1696,-211
1697,-211
1698,-211
1699,-208
1700,-210
1701,-215
1702,-215
1703,-207
1704,-213
1705,-217
1706,-218
1707,-210
1708,-211
1709,-215
1710,-209
1711,-211
1712,-211
1713,-210
1714,-214
1715,-213
1716,-211
1717,-216
1718,-207
1719,-213
1720,-211
1721,-211
1722,-213
1723,-213
1724,-216
1725,-210
1726,-211
1727,-213
1728,-210
1729,-211
1730,-215
1731,-208
1732,-212
1733,-216
1734,-215
1735,-212
1736,-214
1737,-215
1738,-215
1739,-211
1740,-215
1741,-214
1742,-216
1743,-217
1744,-210
1745,-212
1746,-214
1747,-215
1748,-215
1749,-214
1750,-210
1751,-210
1752,-217
1753,-212
1754,-216
1755,-216
1756,-220
1757,-218
1758,-215
1759,-216
1760,-207
1761,-216
1762,-214
1763,-214
1764,-211
1765,-214
1766,-218
1767,-219
1768,-217
1769,-213
1770,-218
1771,-218
1772,-215
1773,-212
1774,-209
1775,-214
1776,-215
1777,-214
1778,-213
1779,-208
1780,-211
1781,-208
1782,-205
1783,-210
1784,-212
1785,-210
1786,-211
1787,-207
1788,-209
1789,-202
1790,-201
1791,-197
1792,-188
1793,-200
1794,-197
1795,-196
1796,-199
1797,-202
1798,-201
1799,-196
1800,-202
1801,-203
1802,-200
1803,-196
1804,-201
1805,-200
1806,-202
1807,-206
1808,-207
1809,-206
1810,-209
1811,-210
1812,-208
1813,-211
1814,-210
1815,-214
1816,-210
1817,-206
1818,-206
1819,-207
1820,-205
1821,-203
1822,-206
1823,-206
1824,-211
1825,-207
1826,-212
1827,-208
1828,-209
1829,-210
1830,-207
1831,-207
1832,-202
1833,-202
1834,-201
1835,-196
1836,-197
1837,-196
1838,-196
1839,-196
1840,-192
1841,-197
1842,-196
1843,-192
1844,-192
1845,-190
1846,-190
1847,-192
1848,-196
1849,-206
1850,-208
1851,-218
1852,-225
1853,-232
1854,-228
1855,-227
1856,-217
1857,-199
1858,-170
1859,-140
1860,-107
1861,-75
1862,-37
1863,-13
1864,18
1865,39
1866,49
1867,41
1868,24
1869,13
1870,-8
1871,-24
1872,-42
1873,-73
1874,-99
1875,-114
1876,-126
1877,-133
1878,-140
1879,-148
1880,-156
1881,-163
1882,-168
1883,-170
1884,-172
1885,-173
1886,-167
1887,-170
1888,-177
1889,-173
1890,-170
1891,-184
1892,-181
1893,-180
1894,-182
1895,-184
1896,-183
1897,-183
1898,-179
1899,-184
1900,-182
1901,-180
1902,-182
1903,-180
1904,-184
1905,-185
1906,-184
1907,-183
1908,-183
1909,-182
1910,-181
1911,-181
1912,-181
1913,-186
1914,-184
1915,-188
1916,-184
1917,-177
1918,-181
1919,-181
1920,-179
1921,-181
1922,-186
1923,-187
1924,-183
1925,-184
1926,-178
1927,-187
1928,-182
1929,-182
1930,-184
1931,-184
1932,-181
1933,-186
1934,-184
1935,-179
1936,-175
1937,-181
1938,-177
1939,-173
1940,-176
1941,-178
1942,-177
1943,-178
1944,-174
1945,-174
1946,-176
1947,-174
1948,-171
1949,-166
1950,-168
1951,-170
1952,-169
1953,-170
1954,-172
1955,-170
1956,-171
1957,-169
1958,-162
1959,-162
1960,-167
1961,-165
1962,-166
1963,-162
1964,-164
1965,-162
1966,-161
1967,-158
1968,-157
1969,-159
1970,-157
1971,-154
1972,-150
1973,-152
1974,-152
1975,-154
1976,-149
1977,-148
1978,-150
1979,-144
1980,-144
1981,-145
1982,-141
1983,-143
1984,-140
1985,-140
1986,-146
1987,-143
1988,-139
1989,-146
1990,-143
1991,-136
1992,-143
1993,-148
1994,-146
1995,-147
1996,-144
1997,-142
1998,-147
1999,-150
2000,-150
2001,-158
2002,-154
2003,-154
2004,-156
2005,-158
2006,-157
2007,-157
2008,-158
2009,-160
2010,-166
2011,-162
2012,-160
2013,-165
2014,-170
2015,-166
2016,-166
2017,-169
2018,-168
2019,-170
2020,-169
2021,-171
2022,-174
2023,-172
2024,-169
2025,-176
2026,-177
2027,-177
2028,-175
2029,-170
2030,-171
2031,-172
2032,-174
2033,-176
2034,-170
2035,-170
2036,-173
2037,-175
2038,-176
2039,-175
2040,-177
2041,-173
2042,-175
2043,-177
2044,-176
2045,-174
2046,-177
2047,-174
2048,-175
2049,-172
2050,-176
2051,-174
2052,-173
2053,-174
2054,-175
2055,-175
2056,-174
2057,-177
2058,-175
2059,-171
2060,-175
2061,-177
2062,-180
2063,-173
2064,-175
2065,-174
2066,-172
2067,-172
2068,-185
2069,-180
2070,-178
2071,-177
2072,-171
2073,-173
2074,-168
2075,-173
2076,-169
2077,-172
2078,-177
2079,-176
2080,-177
2081,-174
2082,-172
2083,-176
2084,-174
2085,-175
2086,-177
2087,-172
2088,-172
2089,-170
2090,-167
2091,-174
2092,-168
2093,-170
2094,-172
2095,-172
2096,-172
2097,-176
2098,-169
2099,-173
2100,-171
2101,-164
2102,-164
2103,-167
2104,-167
2105,-170
2106,-172
2107,-170
2108,-172
2109,-170
2110,-169
2111,-165
2112,-169
2113,-173
2114,-165
2115,-168
2116,-174
2117,-171
2118,-169
2119,-171
2120,-168
2121,-170
2122,-169
2123,-172
2124,-173
2125,-173
2126,-167
2127,-174
2128,-172
2129,-173
2130,-166
2131,-170
2132,-173
2133,-172
2134,-171
2135,-174
2136,-173
2137,-171
2138,-170
2139,-172
2140,-171
2141,-173
2142,-173
2143,-171
2144,-177
2145,-172
2146,-173
2147,-166
2148,-177
2149,-170
2150,-170
2151,-175
2152,-174
2153,-171
2154,-173
2155,-173
2156,-175
2157,-170
2158,-177
2159,-173
2160,-173
2161,-174
2162,-173
2163,-174
2164,-177
2165,-172
2166,-176
2167,-178
2168,-167
2169,-170
2170,-174
2171,-173
2172,-171
2173,-175
2174,-178
2175,-170
2176,-170
2177,-168
2178,-172
2179,-173
2180,-172
2181,-175
2182,-174
2183,-175
2184,-178
2185,-176
2186,-175
2187,-171
2188,-172
2189,-171
2190,-176
2191,-176
2192,-170
2193,-170
2194,-174
2195,-171
2196,-170
2197,-170
2198,-170
2199,-170
2200,-167
2201,-175
2202,-176
2203,-170
2204,-172
2205,-168
2206,-167
2207,-169
2208,-168
2209,-166
2210,-166
2211,-165
2212,-167
2213,-162
2214,-163
2215,-166
2216,-160
2217,-161
2218,-162
2219,-161
2220,-158
2221,-152
2222,-155
2223,-150
2224,-160
2225,-159
2226,-160
2227,-159
2228,-156
2229,-158
2230,-162
2231,-157
2232,-162
2233,-165
2234,-165
2235,-167
2236,-167
2237,-163
2238,-160
2239,-175
2240,-169
2241,-171
2242,-172
2243,-170
2244,-169
2245,-170
2246,-169
2247,-174
2248,-170
2249,-174
2250,-168
2251,-169
2252,-178
2253,-175
2254,-176
2255,-173
2256,-173
2257,-172
2258,-170
2259,-171
2260,-173
2261,-176
2262,-173
2263,-172
2264,-174
2265,-175
2266,-177
2267,-176
2268,-181
2269,-179
2270,-175
2271,-177
2272,-177
2273,-179
2274,-177
2275,-186
2276,-188
2277,-195
2278,-204
2279,-215
2280,-219
2281,-214
2282,-215
2283,-202
2284,-187
2285,-160
2286,-129
2287,-96
2288,-57
2289,-24
2290,5
2291,34
2292,53
2293,68
2294,62
2295,53
2296,36
2297,14
2298,-2
2299,-20
2300,-160
2301,-163
2302,-165
2303,-166
2304,-168
2305,-170
2306,-168
2307,-173
2308,-173
2309,-174
2310,-175
2311,-175
2312,-172
2313,-175
2314,-177
2315,-173
2316,-178
2317,-175
2318,-178
2319,-180
2320,-171
2321,-175
2322,-176
2323,-179
2324,-177
2325,-177
2326,-177
2327,-176
2328,-175
2329,-174
2330,-174
2331,-182
2332,-175
2333,-181
2334,-178
2335,-178
2336,-178
2337,-174
2338,-178
2339,-180
2340,-177
2341,-174
2342,-176
2343,-180
2344,-181
2345,-184
2346,-178
2347,-178
2348,-185
2349,-184
2350,-183
2351,-183
2352,-185
2353,-186
2354,-185
2355,-182
2356,-183
2357,-183
2358,-184
2359,-188
2360,-181
2361,-183
2362,-184
2363,-180
2364,-182
2365,-181
2366,-182
2367,-186
2368,-181
2369,-179
2370,-178
2371,-179
2372,-179
2373,-178
2374,-178
2375,-175
2376,-174
2377,-176
2378,-175
2379,-172
2380,-173
2381,-171
2382,-171
2383,-172
2384,-167
2385,-168
2386,-171
2387,-176
2388,-164
2389,-165
2390,-162
2391,-160
2392,-162
2393,-162
2394,-157
2395,-154
2396,-156
2397,-152
2398,-151
2399,-154
2400,-157
2401,-158
2402,-155
2403,-149
2404,-151
2405,-155
2406,-151
2407,-151
2408,-152
2409,-153
2410,-154
2411,-155
2412,-155
2413,-155
2414,-154
2415,-157
2416,-161
2417,-164
2418,-163
2419,-162
2420,-166
2421,-165
2422,-169
2423,-169
2424,-173
2425,-175
2426,-173
2427,-177
2428,-179
2429,-177
2430,-178
2431,-180
2432,-182
2433,-181
2434,-177
2435,-183
2436,-183
2437,-181
2438,-185
2439,-191
2440,-186
2441,-186
2442,-187
2443,-184
2444,-189
2445,-190
2446,-188
2447,-190
2448,-189
2449,-191
2450,-192
2451,-188
2452,-189
2453,-191
2454,-184
2455,-188
2456,-188
2457,-190
2458,-189
2459,-191
2460,-186
2461,-187
2462,-189
2463,-187
2464,-190
2465,-193
2466,-189
2467,-188
2468,-189
2469,-190
2470,-190
2471,-189
2472,-187
2473,-184
2474,-192
2475,-194
2476,-186
2477,-187
2478,-192
2479,-188
2480,-186
2481,-187
2482,-189
2483,-189
2484,-189
2485,-185
2486,-187
2487,-190
2488,-192
2489,-196
2490,-192
2491,-190
2492,-188
2493,-191
2494,-188
2495,-192
2496,-192
2497,-191
2498,-190
2499,-188
2500,-190
2501,-188
2502,-192
2503,-192
2504,-189
2505,-191
2506,-191
2507,-194
2508,-186
2509,-193
2510,-190
2511,-191
2512,-190
2513,-190
2514,-191
2515,-188
2516,-188
2517,-193
2518,-191
2519,-192
2520,-191
2521,-189
2522,-191
2523,-190
2524,-192
2525,-194
2526,-186
2527,-189
2528,-190
2529,-185
2530,-189
2531,-189
2532,-191
2533,-183
2534,-190
2535,-190
2536,-187
2537,-191
2538,-193
2539,-193
2540,-191
2541,-192
2542,-189
2543,-188
2544,-190
2545,-200
2546,-190
2547,-188
2548,-186
2549,-191
2550,-196
2551,-195
2552,-193
2553,-188
2554,-190
2555,-191
2556,-187
2557,-189
2558,-186
2559,-192
2560,-194
2561,-189
2562,-190
2563,-191
2564,-191
2565,-186
2566,-191
2567,-195
2568,-191
2569,-196
2570,-190
2571,-192
2572,-190
2573,-189
2574,-191
2575,-192
2576,-192
2577,-190
2578,-193
2579,-192
2580,-194
2581,-195
2582,-194
2583,-195
2584,-191
2585,-191
2586,-191
2587,-193
2588,-194
2589,-196
2590,-190
2591,-193
2592,-197
2593,-190
2594,-190
2595,-201
2596,-192
2597,-189
2598,-184
2599,-189
2600,-190
2601,-190
2602,-188
2603,-189
2604,-195
2605,-189
2606,-190
2607,-189
2608,-188
2609,-190
2610,-191
2611,-193
2612,-191
2613,-193
2614,-192
2615,-190
2616,-190
2617,-190
2618,-187
2619,-189
2620,-186
2621,-187
2622,-186
2623,-183
2624,-182
2625,-182
2626,-176
2627,-182
2628,-182
2629,-181
2630,-180
2631,-178
2632,-180
2633,-170
2634,-170
2635,-176
2636,-174
2637,-174
2638,-177
2639,-177
2640,-177
2641,-178
2642,-174
2643,-172
2644,-172
2645,-175
2646,-177
2647,-178
2648,-184
2649,-183
2650,-185
2651,-186
2652,-190
2653,-188
2654,-186
2655,-189
2656,-186
2657,-189
2658,-188
2659,-189
2660,-188
2661,-184
2662,-186
2663,-187
2664,-188
2665,-185
2666,-187
2667,-189
2668,-190
2669,-190
2670,-192
2671,-190
2672,-188
2673,-189
2674,-183
2675,-184
2676,-192
2677,-194
2678,-189
2679,-188
2680,-189
2681,-192
2682,-191
2683,-190
2684,-191
2685,-196
2686,-195
2687,-198
2688,-204
2689,-210
2690,-213
2691,-224
2692,-229
2693,-226
2694,-226
2695,-216
2696,-205
2697,-180
2698,-148
2699,-118
2700,-88
2701,-57
2702,-29
2703,2
2704,23
2705,37
2706,31
2707,20
2708,13
2709,-11
2710,-31
2711,-50
2712,-78
2713,-100
2714,-116
2715,-120
2716,-131
2717,-141
2718,-148
2719,-155
2720,-161
2721,-163
2722,-167
2723,-169
2724,-173
2725,-174
2726,-173
2727,-175
2728,-173
2729,-174
2730,-178
2731,-178
2732,-177
2733,-180
2734,-175
2735,-177
2736,-181
2737,-179
2738,-181
2739,-175
2740,-179
2741,-184
2742,-180
2743,-179
2744,-181
2745,-180
2746,-177
2747,-181
2748,-177
2749,-177
2750,-176
2751,-178
2752,-176
2753,-177
2754,-178
2755,-176
2756,-178
2757,-177
2758,-175
2759,-174
2760,-173
2761,-179
2762,-179
2763,-177
2764,-176
2765,-176
2766,-175
2767,-167
2768,-173
2769,-171
2770,-169
2771,-173
2772,-170
2773,-170
2774,-168
2775,-166
2776,-166
2777,-169
2778,-170
2779,-175
2780,-168
2781,-165
2782,-167
2783,-163
2784,-168
2785,-166
2786,-163
2787,-166
2788,-159
2789,-158
2790,-161
2791,-163
2792,-160
2793,-161
2794,-160
2795,-159
2796,-158
2797,-157
2798,-151
2799,-155
2800,-154
2801,-150
2802,-147
2803,-152
2804,-152
2805,-147
2806,-149
2807,-147
2808,-144
2809,-143
2810,-144
2811,-145
2812,-140
2813,-139
2814,-137
2815,-132
2816,-134
2817,-134
2818,-128
2819,-127
2820,-132
2821,-133
2822,-130
2823,-130
2824,-127
2825,-125
2826,-125
2827,-128
2828,-129
2829,-124
2830,-126
2831,-129
2832,-130
2833,-125
2834,-127
2835,-127
2836,-127
2837,-128
2838,-129
2839,-129
2840,-138
2841,-133
2842,-134
2843,-132
2844,-136
2845,-139
2846,-141
2847,-145
2848,-143
2849,-144
2850,-143
2851,-145
2852,-147
2853,-146
2854,-149
2855,-146
2856,-151
2857,-153
2858,-150
2859,-153
2860,-153
2861,-156
2862,-157
2863,-155
2864,-154
2865,-155
2866,-156
2867,-152
2868,-153
2869,-155
2870,-161
2871,-155
2872,-156
2873,-154
2874,-154
2875,-158
2876,-155
2877,-153
2878,-155
2879,-154
2880,-156
2881,-153
2882,-152
2883,-152
2884,-147
2885,-154
2886,-161
2887,-153
2888,-156
2889,-155
2890,-153
2891,-151
2892,-152
2893,-155
2894,-153
2895,-153
2896,-154
2897,-159
2898,-153
2899,-155
2900,-156
2901,-152
2902,-153
2903,-150
2904,-151
2905,-154
2906,-152
2907,-153
2908,-153
2909,-155
2910,-156
2911,-155
2912,-153
2913,-152
2914,-156
2915,-154
2916,-149
2917,-152
2918,-155
2919,-150
2920,-151
2921,-153
2922,-155
2923,-153
2924,-152
2925,-157
2926,-154
2927,-153
2928,-156
2929,-157
2930,-154
2931,-152
2932,-153
2933,-154
2934,-151
2935,-150
2936,-152
2937,-151
2938,-152
2939,-149
2940,-155
2941,-155
2942,-152
2943,-156
2944,-148
2945,-148
2946,-150
2947,-151
2948,-154
2949,-152
2950,-149
2951,-151
2952,-154
2953,-149
2954,-154
2955,-156
2956,-151
2957,-150
2958,-149
2959,-154
2960,-148
2961,-150
2962,-150
2963,-148
2964,-151
2965,-152
2966,-155
2967,-153
2968,-155
2969,-151
2970,-154
2971,-152
2972,-146
2973,-147
2974,-151
2975,-154
2976,-155
2977,-152
2978,-149
2979,-155
2980,-154
2981,-153
2982,-153
2983,-152
2984,-146
2985,-151
2986,-154
2987,-156
2988,-156
2989,-152
2990,-147
2991,-147
2992,-156
2993,-153
2994,-149
2995,-152
2996,-154
2997,-154
2998,-156
2999,-150
3000,-157
3001,-154
3002,-149
3003,-151
3004,-153
3005,-157
3006,-156
3007,-153
3008,-151
3009,-151
3010,-153
3011,-151
3012,-152
3013,-154
3014,-149
3015,-152
3016,-154
3017,-152
3018,-154
3019,-157
3020,-153
3021,-152
3022,-156
3023,-154
3024,-152
3025,-152
3026,-153
3027,-152
3028,-152
3029,-153
3030,-153
3031,-153
3032,-152
3033,-154
3034,-155
3035,-155
3036,-156
3037,-153
3038,-150
3039,-147
3040,-145
3041,-144
3042,-145
3043,-142
3044,-146
3045,-147
3046,-146
3047,-146
3048,-143
3049,-143
3050,-141
3051,-141
3052,-139
3053,-138
3054,-138
3055,-136
3056,-142
3057,-141
3058,-135
3059,-139
3060,-139
3061,-139
3062,-140
3063,-139
3064,-141
3065,-142
3066,-146
3067,-146
3068,-151
3069,-152
3070,-154
3071,-152
3072,-151
3073,-151
3074,-155
3075,-150
3076,-154
3077,-155
3078,-154
3079,-153
3080,-151
3081,-154
3082,-154
3083,-152
3084,-152
3085,-153
3086,-155
3087,-154
3088,-156
3089,-155
3090,-152
3091,-152
3092,-155
3093,-157
3094,-156
3095,-152
3096,-158
3097,-159
3098,-156
3099,-152
3100,-152
3101,-154
3102,-154
3103,-155
3104,-159
3105,-164
3106,-169
3107,-175
3108,-182
3109,-187
3110,-187
3111,-201
3112,-193
3113,-177
3114,-164
3115,-136
3116,-104
3117,-72
3118,-42
3119,-3
3120,24
3121,51
3122,68
3123,80
3124,74
3125,58
3126,50
3127,30
3128,13
3129,-10
3130,-37
3131,-64
3132,-74
3133,-88
3134,-98
3135,-103
3136,-116
3137,-124
3138,-130
3139,-133
3140,-136
3141,-137
3142,-138
3143,-140
3144,-145
3145,-145
3146,-151
3147,-145
3148,-143
3149,-148
3150,-150
3151,-149
3152,-147
3153,-154
3154,-149
3155,-149
3156,-154
3157,-153
3158,-154
3159,-152
3160,-152
3161,-155
3162,-154
3163,-153
3164,-153
3165,-153
3166,-150
3167,-154
3168,-151
3169,-152
3170,-153
3171,-150
3172,-150
3173,-152
3174,-154
3175,-149
3176,-152
3177,-155
3178,-154
3179,-152
3180,-149
3181,-148
3182,-149
3183,-151
3184,-152
3185,-154
3186,-152
3187,-145
3188,-150
3189,-143
3190,-147
3191,-152
3192,-146
3193,-145
3194,-152
3195,-148
3196,-148
3197,-150
3198,-147
3199,-147
3200,-151
3201,-148
3202,-144
3203,-147
3204,-145
3205,-145
3206,-146
3207,-143
3208,-143
3209,-141
3210,-139
3211,-138
3212,-141
3213,-142
3214,-140
3215,-138
3216,-141
3217,-138
3218,-137
3219,-139
3220,-137
3221,-134
3222,-132
3223,-126
3224,-126
3225,-129
3226,-131
3227,-126
3228,-128
3229,-125
3230,-126
3231,-124
3232,-122
3233,-123
3234,-120
3235,-120
3236,-121
3237,-116
3238,-111
3239,-113
3240,-119
3241,-117
3242,-115
3243,-117
3244,-115
3245,-116
3246,-114
3247,-120
3248,-113
3249,-114
3250,-116
3251,-118
3252,-115
3253,-117
3254,-120
3255,-119
3256,-123
3257,-125
3258,-125
3259,-129
3260,-130
3261,-130
3262,-130
3263,-132
3264,-133
3265,-138
3266,-134
3267,-133
3268,-137
3269,-141
3270,-139
3271,-140
3272,-141
3273,-141
3274,-142
3275,-143
3276,-147
3277,-149
3278,-149
3279,-143
3280,-147
3281,-146
3282,-148
3283,-151
3284,-143
3285,-144
3286,-146
3287,-145
3288,-144
3289,-147
3290,-146
3291,-151
3292,-146
3293,-144
3294,-148
3295,-147
3296,-147
3297,-145
3298,-148
3299,-148
3300,-146
3301,-144
3302,-143
3303,-150
3304,-145
3305,-147
3306,-147
3307,-144
3308,-145
3309,-148
3310,-149
3311,-142
3312,-146
3313,-146
3314,-147
3315,-146
3316,-147
3317,-142
3318,-146
3319,-144
3320,-150
3321,-149
3322,-147
3323,-151
3324,-152
3325,-149
3326,-146
3327,-148
3328,-149
3329,-148
3330,-149
3331,-149
3332,-144
3333,-144
3334,-146
3335,-145
3336,-151
3337,-146
3338,-150
3339,-146
3340,-145
3341,-146
3342,-145
3343,-146
3344,-148
3345,-149
3346,-150
3347,-150
3348,-147
3349,-144
3350,-143
3351,-141
3352,-149
3353,-148
3354,-149
3355,-149
3356,-150
3357,-148
3358,-145
3359,-144
3360,-147
3361,-147
3362,-153
3363,-154
3364,-152
3365,-154
3366,-154
3367,-152
3368,-153
3369,-152
3370,-152
3371,-150
3372,-152
3373,-153
3374,-149
3375,-152
3376,-149
3377,-150
3378,-149
3379,-153
3380,-150
3381,-151
3382,-149
3383,-150
3384,-148
3385,-144
3386,-150
3387,-147
3388,-149
3389,-147
3390,-149
3391,-150
3392,-148
3393,-146
3394,-146
3395,-151
3396,-150
3397,-150
3398,-148
3399,-147
3400,-149
3401,-151
3402,-150
3403,-151
3404,-153
3405,-152
3406,-144
3407,-148
3408,-146
3409,-145
3410,-149
3411,-146
3412,-147
3413,-152
3414,-148
3415,-148
3416,-148
3417,-143
3418,-142
3419,-151
3420,-151
3421,-154
3422,-148
3423,-149
3424,-149
3425,-149
3426,-151
3427,-149
3428,-151
3429,-149
3430,-146
3431,-150
3432,-154
3433,-151
3434,-150
3435,-152
3436,-152
3437,-150
3438,-148
3439,-149
3440,-149
3441,-147
3442,-150
3443,-151
3444,-150
3445,-147
3446,-153
3447,-152
3448,-150
3449,-142
3450,-144
3451,-147
3452,-139
3453,-144
3454,-143
3455,-141
3456,-140
3457,-140
3458,-141
3459,-141
3460,-140
3461,-141
3462,-138
3463,-134
3464,-137
3465,-135
3466,-136
3467,-133
3468,-134
3469,-137
3470,-135
3471,-129
3472,-132
3473,-137
3474,-134
3475,-135
3476,-137
3477,-138
3478,-141
3479,-144
3480,-146
3481,-150
3482,-144
3483,-145
3484,-148
3485,-146
3486,-145
3487,-149
3488,-152
3489,-154
3490,-151
3491,-154
3492,-152
3493,-152
3494,-149
3495,-151
3496,-154
3497,-152
3498,-152
3499,-152
3500,-153
3501,-153
3502,-154
3503,-157
3504,-156
3505,-146
3506,-150
3507,-150
3508,-150
3509,-153
3510,-156
3511,-150
3512,-152
3513,-156
3514,-154
3515,-155
3516,-156
3517,-159
3518,-165
3519,-172
3520,-178
3521,-188
3522,-191
3523,-200
3524,-196
3525,-198
3526,-191
3527,-167
3528,-134
3529,-106
3530,-75
3531,-34
3532,-6
3533,18
3534,50
3535,76
3536,87
3537,77
3538,52
3539,44
3540,21
3541,6
3542,-17
3543,-48
3544,-67
3545,-83
3546,-93
3547,-101
3548,-109
3549,-117
3550,-127
3551,-132
3552,-136
3553,-141
3554,-139
3555,-148
3556,-149
3557,-149
3558,-145
3559,-149
3560,-151
3561,-156
3562,-154
3563,-160
3564,-154
3565,-156
3566,-157
3567,-152
3568,-152
3569,-150
3570,-151
3571,-159
3572,-157
3573,-157
3574,-160
3575,-160
3576,-158
3577,-155
3578,-156
3579,-158
3580,-158
3581,-152
3582,-156
3583,-158
3584,-157
3585,-156
3586,-153
3587,-154
3588,-159
3589,-152
3590,-156
3591,-154
3592,-155
3593,-156
3594,-157
3595,-157
3596,-156
3597,-153
3598,-155
3599,-155
3600,-149
3601,-148
3602,-157
3603,-155
3604,-155
3605,-148
3606,-157
3607,-154
3608,-153
3609,-152
3610,-152
3611,-158
3612,-154
3613,-156
3614,-154
3615,-156
3616,-151
3617,-154
3618,-158
3619,-149
3620,-148
3621,-149
3622,-150
3623,-145
3624,-144
3625,-146
3626,-147
3627,-144
3628,-145
3629,-142
3630,-142
3631,-143
3632,-142
3633,-140
3634,-139
3635,-140
3636,-135
3637,-136
3638,-134
3639,-132
3640,-132
3641,-133
3642,-132
3643,-130
3644,-133
3645,-130
3646,-128
3647,-129
3648,-124
3649,-126
3650,-123
3651,-125
3652,-121
3653,-124
3654,-122
3655,-125
3656,-120
3657,-118
3658,-123
3659,-119
3660,-120
3661,-123
3662,-122
3663,-127
3664,-120
3665,-123
3666,-125
3667,-125
3668,-124
3669,-127
3670,-133
3671,-131
3672,-130
3673,-132
3674,-138
3675,-138
3676,-135
3677,-139
3678,-146
3679,-138
3680,-135
3681,-143
3682,-144
3683,-146
3684,-144
3685,-146
3686,-149
3687,-149
3688,-150
3689,-151
3690,-154
3691,-151
3692,-151
3693,-152
3694,-159
3695,-154
3696,-155
3697,-152
3698,-149
3699,-153
3700,-159
3701,-155
3702,-155
3703,-152
3704,-156
3705,-154
3706,-157
3707,-156
3708,-156
3709,-154
3710,-151
3711,-155
3712,-157
3713,-156
3714,-153
3715,-156
3716,-153
3717,-154
3718,-153
3719,-157
3720,-153
3721,-155
3722,-155
3723,-154
3724,-153
3725,-147
3726,-154
3727,-154
3728,-153
3729,-156
3730,-152
3731,-152
3732,-158
3733,-156
3734,-152
3735,-154
3736,-155
3737,-154
3738,-153
3739,-156
3740,-158
3741,-159
3742,-153
3743,-155
3744,-157
3745,-156
3746,-157
3747,-157
3748,-150
3749,-147
3750,-152
3751,-151
3752,-152
3753,-153
3754,-157
3755,-154
3756,-155
3757,-153
3758,-158
3759,-155
3760,-151
3761,-151
3762,-156
3763,-153
3764,-151
3765,-153
3766,-149
3767,-154
3768,-157
3769,-158
3770,-155
3771,-158
3772,-156
3773,-154
3774,-158
3775,-154
3776,-156
3777,-156
3778,-158
3779,-151
3780,-152
3781,-151
3782,-154
3783,-157
3784,-155
3785,-154
3786,-158
3787,-155
3788,-155
3789,-159
3790,-160
3791,-154
3792,-156
3793,-159
3794,-155
3795,-155
3796,-156
3797,-155
3798,-161
3799,-157
3800,-155
3801,-157
3802,-156
3803,-156
3804,-158
3805,-159
3806,-157
3807,-158
3808,-162
3809,-158
3810,-160
3811,-156
3812,-154
3813,-156
3814,-154
3815,-157
3816,-154
3817,-158
3818,-157
3819,-155
3820,-156
3821,-161
3822,-156
3823,-156
3824,-160
3825,-157
3826,-161
3827,-161
3828,-154
3829,-163
3830,-157
3831,-156
3832,-158
3833,-162
3834,-161
3835,-159
3836,-159
3837,-158
3838,-157
3839,-159
3840,-157
3841,-155
3842,-158
3843,-160
3844,-158
3845,-156
3846,-156
3847,-157
3848,-154
3849,-155
3850,-155
3851,-157
3852,-166
3853,-159
3854,-158
3855,-152
3856,-156
3857,-154
3858,-157
3859,-154
3860,-150
3861,-153
3862,-152
3863,-151
3864,-151
3865,-154
3866,-148
3867,-150
3868,-150
3869,-143
3870,-144
3871,-137
3872,-144
3873,-145
3874,-143
3875,-142
3876,-144
3877,-144
3878,-142
3879,-145
3880,-145
3881,-141
3882,-144
3883,-145
3884,-149
3885,-149
3886,-151
3887,-157
3888,-158
3889,-161
3890,-154
3891,-156
3892,-164
3893,-155
3894,-156
3895,-160
3896,-160
3897,-158
3898,-161
3899,-161
3900,-162
3901,-162
3902,-163
3903,-164
3904,-163
3905,-162
3906,-165
3907,-163
3908,-167
3909,-160
3910,-161
3911,-163
3912,-163
3913,-165
3914,-164
3915,-167
3916,-165
3917,-164
3918,-160
3919,-165
3920,-163
3921,-165
3922,-167
3923,-166
3924,-170
3925,-177
3926,-183
3927,-186
3928,-194
3929,-206
3930,-210
3931,-204
3932,-202
3933,-191
3934,-170
3935,-140
3936,-110
3937,-76
3938,-44
3939,-10
3940,21
3941,51
3942,73
3943,69
3944,59
3945,46
3946,32
3947,4
3948,-13
3949,-34
3950,-62
3951,-87
3952,-100
3953,-104
3954,-113
3955,-126
3956,-130
3957,-135
3958,-142
3959,-142
3960,-149
3961,-154
3962,-155
3963,-159
3964,-162
3965,-160
3966,-159
3967,-161
3968,-159
3969,-162
3970,-164
3971,-164
3972,-163
3973,-163
3974,-165
3975,-163
3976,-162
3977,-166
3978,-166
3979,-163
3980,-166
3981,-167
3982,-164
3983,-169
3984,-166
3985,-165
3986,-161
3987,-163
3988,-163
3989,-163
3990,-165
3991,-163
3992,-161
3993,-160
3994,-162
3995,-162
3996,-161
3997,-165
3998,-164
3999,-165
4000,-161
4001,-163
4002,-163
4003,-161
4004,-163
4005,-161
4006,-164
4007,-163
4008,-161
4009,-160
4010,-161
4011,-160
4012,-163
4013,-161
4014,-155
4015,-162
4016,-165
4017,-163
4018,-160
4019,-159
4020,-158
4021,-153
4022,-156
4023,-152
4024,-160
4025,-159
4026,-157
4027,-154
4028,-155
4029,-157
4030,-153
4031,-154
4032,-151
4033,-154
4034,-148
4035,-147
4036,-150
4037,-148
4038,-149
4039,-148
4040,-146
4041,-144
4042,-142
4043,-138
4044,-141
4045,-142
4046,-143
4047,-135
4048,-137
4049,-139
4050,-136
4051,-135
4052,-135
4053,-129
4054,-128
4055,-130
4056,-125
4057,-127
4058,-131
4059,-128
4060,-125
4061,-132
4062,-131
4063,-128
4064,-129
4065,-130
4066,-123
4067,-122
4068,-130
4069,-128
4070,-127
4071,-125
4072,-129
4073,-129
4074,-128
4075,-133
4076,-135
4077,-135
4078,-139
4079,-137
4080,-138
4081,-137
4082,-137
4083,-138
4084,-141
4085,-144
4086,-146
4087,-142
4088,-148
4089,-152
4090,-150
4091,-147
4092,-153
4093,-155
4094,-153
4095,-154
4096,-155
4097,-154
4098,-156
4099,-157
4100,-157
4101,-154
4102,-152
4103,-160
4104,-157
4105,-153
4106,-158
4107,-156
4108,-159
4109,-156
4110,-155
4111,-158
4112,-156
4113,-155
4114,-156
4115,-154
4116,-153
4117,-157
4118,-159
4119,-157
4120,-156
4121,-159
4122,-155
4123,-153
4124,-150
4125,-157
4126,-157
4127,-156
4128,-161
4129,-158
4130,-158
4131,-157
4132,-157
4133,-157
4134,-161
4135,-155
4136,-157
4137,-158
4138,-158
4139,-157
4140,-159
4141,-158
4142,-157
4143,-157
4144,-161
4145,-157
4146,-159
4147,-153
4148,-155
4149,-157
4150,-159
4151,-155
4152,-154
4153,-157
4154,-159
4155,-159
4156,-159
4157,-160
4158,-158
4159,-156
4160,-159
4161,-162
4162,-154
4163,-156
4164,-155
4165,-156
4166,-159
4167,-159
4168,-156
4169,-155
4170,-157
4171,-156
4172,-156
4173,-157
4174,-155
4175,-160
4176,-159
4177,-157
4178,-155
4179,-153
4180,-156
4181,-155
4182,-158
4183,-156
4184,-159
4185,-157
4186,-155
4187,-158
4188,-158
4189,-160
4190,-160
4191,-159
4192,-158
4193,-157
4194,-160
4195,-159
4196,-156
4197,-154
4198,-154
4199,-158
4200,-159
4201,-155
4202,-156
4203,-154
4204,-154
4205,-158
4206,-153
4207,-156
4208,-160
4209,-158
4210,-156
4211,-160
4212,-160
4213,-159
4214,-160
4215,-163
4216,-155
4217,-155
4218,-153
4219,-159
4220,-157
4221,-154
4222,-158
4223,-157
4224,-157
4225,-155
4226,-160
4227,-154
4228,-159
4229,-159
4230,-155
4231,-157
4232,-157
4233,-157
4234,-158
4235,-160
4236,-157
4237,-155
4238,-160
4239,-160
4240,-159
4241,-159
4242,-156
4243,-159
4244,-157
4245,-162
4246,-159
4247,-157
4248,-159
4249,-157
4250,-160
4251,-156
4252,-160
4253,-161
4254,-159
4255,-154
4256,-158
4257,-157
4258,-158
4259,-155
4260,-162
4261,-160
4262,-158
4263,-154
4264,-154
4265,-158
4266,-154
4267,-157
4268,-157
4269,-154
4270,-156
4271,-154
4272,-148
4273,-150
4274,-152
4275,-158
4276,-152
4277,-152
4278,-148
4279,-148
4280,-149
4281,-144
4282,-143
4283,-143
4284,-142
4285,-144
4286,-143
4287,-142
4288,-142
4289,-149
4290,-150
4291,-144
4292,-143
4293,-142
4294,-144
4295,-148
4296,-151
4297,-154
4298,-154
4299,-152
4300,-157
4301,-156
4302,-159
4303,-159
4304,-158
4305,-160
4306,-153
4307,-155
4308,-157
4309,-154
4310,-159
4311,-157
4312,-157
4313,-157
4314,-153
4315,-157
4316,-163
4317,-161
4318,-161
4319,-160
4320,-161
4321,-157
4322,-161
4323,-161
4324,-164
4325,-161
4326,-167
4327,-158
4328,-159
4329,-158
4330,-158
4331,-159
4332,-158
4333,-159
4334,-163
4335,-167
4336,-175
4337,-179
4338,-186
4339,-194
4340,-204
4341,-203
4342,-204
4343,-194
4344,-176
4345,-159
4346,-128
4347,-102
4348,-68
4349,-31
4350,-2
4351,26
4352,57
4353,77
4354,76
4355,65
4356,51
4357,32
4358,11
4359,-3
4360,-29
4361,-55
4362,-77
4363,-88
4364,-99
4365,-106
4366,-113
4367,-121
4368,-128
4369,-133
4370,-142
4371,-146
4372,-154
4373,-145
4374,-145
4375,-149
4376,-153
4377,-154
4378,-153
4379,-155
4380,-154
4381,-151
4382,-161
4383,-161
4384,-159
4385,-160
4386,-158
4387,-159
4388,-162
4389,-155
4390,-156
4391,-158
4392,-161
4393,-158
4394,-160
4395,-162
4396,-156
4397,-160
4398,-161
4399,-157
4400,-159
4401,-158
4402,-162
4403,-160
4404,-154
4405,-154
4406,-155
4407,-155
4408,-157
4409,-157
4410,-156
4411,-153
4412,-155
4413,-155
4414,-154
4415,-164
4416,-155
4417,-160
4418,-155
4419,-156
4420,-154
4421,-155
4422,-157
4423,-155
4424,-157
4425,-149
4426,-154
4427,-152
4428,-148
4429,-150
4430,-150
4431,-150
4432,-147
4433,-153
4434,-148
4435,-149
4436,-150
4437,-152
4438,-148
4439,-143
4440,-147
4441,-141
4442,-145
4443,-145
4444,-146
4445,-145
4446,-145
4447,-143
4448,-142
4449,-139
4450,-138
4451,-141
4452,-139
4453,-138
4454,-136
4455,-133
4456,-133
4457,-133
4458,-133
4459,-131
4460,-128
4461,-126
4462,-118
4463,-124
4464,-127
4465,-124
4466,-121
4467,-120
4468,-121
4469,-120
4470,-121
4471,-116
4472,-122
4473,-116
4474,-119
4475,-115
4476,-121
4477,-114
4478,-113
4479,-117
4480,-116
4481,-115
4482,-119
4483,-120
4484,-119
4485,-119
4486,-121
4487,-123
4488,-123
4489,-124
4490,-129
4491,-127
4492,-131
4493,-134
4494,-133
4495,-134
4496,-135
4497,-135
4498,-139
4499,-140
4500,-138
4501,-138
4502,-143
4503,-144
4504,-140
4505,-139
4506,-145
4507,-144
4508,-146
4509,-151
4510,-141
4511,-145
4512,-149
4513,-148
4514,-143
4515,-146
4516,-144
4517,-148
4518,-150
4519,-148
4520,-151
4521,-142
4522,-144
4523,-145
4524,-149
4525,-151
4526,-146
4527,-148
4528,-144
4529,-146
4530,-148
4531,-148
4532,-146
4533,-151
4534,-149
4535,-147
4536,-146
4537,-150
4538,-148
4539,-144
4540,-144
4541,-147
4542,-148
4543,-148
4544,-144
4545,-146
4546,-141
4547,-148
4548,-144
4549,-146
4550,-145
4551,-147
4552,-150
4553,-148
4554,-148
4555,-148
4556,-149
4557,-147
4558,-150
4559,-146
4560,-147
4561,-145
4562,-145
4563,-147
4564,-147
4565,-146
4566,-149
4567,-146
4568,-148
4569,-143
4570,-147
4571,-147
4572,-150
4573,-148
4574,-147
4575,-150
4576,-147
4577,-151
4578,-149
4579,-144
4580,-147
4581,-146
4582,-148
4583,-148
4584,-142
4585,-140
4586,-144
4587,-144
4588,-148
4589,-146
4590,-149
4591,-144
4592,-144
4593,-142
4594,-145
4595,-147
4596,-150
4597,-149
4598,-153
4599,-149
4600,-142
4601,-147
4602,-142
4603,-146
4604,-153
4605,-149
4606,-146
4607,-148
4608,-146
4609,-144
4610,-149
4611,-149
4612,-145
4613,-140
4614,-153
4615,-149
4616,-149
4617,-143
4618,-144
4619,-149
4620,-147
4621,-145
4622,-144
4623,-143
4624,-142
4625,-150
4626,-146
4627,-147
4628,-152
4629,-145
4630,-147
4631,-146
4632,-145
4633,-149
4634,-148
4635,-146
4636,-145
4637,-147
4638,-148
4639,-148
4640,-145
4641,-147
4642,-143
4643,-143
4644,-145
4645,-151
4646,-147
4647,-148
4648,-153
4649,-148
4650,-148
4651,-145
4652,-144
4653,-144
4654,-145
4655,-148
4656,-147
4657,-150
4658,-148
4659,-148
4660,-146
4661,-144
4662,-149
4663,-146
4664,-146
4665,-150
4666,-142
4667,-145
4668,-143
4669,-141
4670,-144
4671,-144
4672,-141
4673,-136
4674,-141
4675,-143
4676,-133
4677,-143
4678,-141
4679,-141
4680,-141
4681,-138
4682,-132
4683,-136
4684,-136
4685,-133
4686,-132
4687,-132
4688,-128
4689,-129
4690,-130
4691,-129
4692,-133
4693,-132
4694,-132
4695,-129
4696,-137
4697,-136
4698,-132
4699,-135
4700,-135
4701,-136
4702,-139
4703,-142
4704,-143
4705,-141
4706,-147
4707,-140
4708,-147
4709,-143
4710,-142
4711,-146
4712,-146
4713,-144
4714,-143
4715,-147
4716,-146
4717,-149
4718,-147
4719,-146
4720,-149
4721,-145
4722,-149
4723,-145
4724,-149
4725,-144
4726,-149
4727,-150
4728,-142
4729,-146
4730,-149
4731,-146
4732,-145
4733,-147
4734,-146
4735,-147
4736,-150
4737,-152
4738,-148
4739,-152
4740,-159
4741,-163
4742,-169
4743,-177
4744,-183
4745,-196
4746,-192
4747,-185
4748,-172
4749,-153
4750,-125
4751,-98
4752,-68
4753,-41
4754,-9
4755,18
4756,46
4757,74
4758,78
4759,67
4760,55
4761,29
4762,16
4763,-5
4764,-17
4765,-50
4766,-74
4767,-92
4768,-95
4769,-102
4770,-110
4771,-121
4772,-120
4773,-123
4774,-132
4775,-135
4776,-135
4777,-133
4778,-132
4779,-139
4780,-136
4781,-141
4782,-140
4783,-140
4784,-145
4785,-146
4786,-139
4787,-145
4788,-146
4789,-146
4790,-148
4791,-143
4792,-143
4793,-148
4794,-146
4795,-148
4796,-143
4797,-145
4798,-148
4799,-143
4800,-143
4801,-145
4802,-148
4803,-143
4804,-148
4805,-141
4806,-143
4807,-144
4808,-145
4809,-144
4810,-144
4811,-145
4812,-141
4813,-141
4814,-144
4815,-142
4816,-144
4817,-145
4818,-141
4819,-138
4820,-139
4821,-141
4822,-146
4823,-140
4824,-144
4825,-145
4826,-146
4827,-141
4828,-143
4829,-136
4830,-139
4831,-136
4832,-135
4833,-138
4834,-138
4835,-137
4836,-142
4837,-134
4838,-135
4839,-140
4840,-138
4841,-134
4842,-139
4843,-133
4844,-136
4845,-135
4846,-136
4847,-134
4848,-130
4849,-131
4850,-129
4851,-123
4852,-130
4853,-130
4854,-128
4855,-134
4856,-120
4857,-128
4858,-118
4859,-116
4860,-118
4861,-122
4862,-119
4863,-115
4864,-116
4865,-111
4866,-111
4867,-111
4868,-113
4869,-112
4870,-110
4871,-109
4872,-108
4873,-110
4874,-109
4875,-107
4876,-101
4877,-104
4878,-105
4879,-104
4880,-105
4881,-105
4882,-105
4883,-103
4884,-105
4885,-107
4886,-109
4887,-110
4888,-108
4889,-109
4890,-106
4891,-110
4892,-108
4893,-112
4894,-116
4895,-123
4896,-112
4897,-117
4898,-113
4899,-119
4900,-119
4901,-121
4902,-123
4903,-125
4904,-121
4905,-128
4906,-127
4907,-131
4908,-123
4909,-127
4910,-132
4911,-130
4912,-135
4913,-133
4914,-131
4915,-132
4916,-132
4917,-134
4918,-131
4919,-131
4920,-128
4921,-131
4922,-131
4923,-137
4924,-136
4925,-134
4926,-136
4927,-141
4928,-134
4929,-128
4930,-131
4931,-129
4932,-131
4933,-131
4934,-133
4935,-135
4936,-133
4937,-131
4938,-133
4939,-135
4940,-134
4941,-131
4942,-129
4943,-135
4944,-138
4945,-134
4946,-134
4947,-134
4948,-130
4949,-132
4950,-132
4951,-130
4952,-129
4953,-134
4954,-132
4955,-127
4956,-127
4957,-130
4958,-135
4959,-132
4960,-130
4961,-132
4962,-135
4963,-136
4964,-133
4965,-128
4966,-131
4967,-134
4968,-130
4969,-131
4970,-128
4971,-131
4972,-127
4973,-131
4974,-131
4975,-129
4976,-133
4977,-132
4978,-124
4979,-126
4980,-130
4981,-135
4982,-130
4983,-130
4984,-131
4985,-131
4986,-131
4987,-124
4988,-125
4989,-132
4990,-126
4991,-131
4992,-125
4993,-131
4994,-126
4995,-128
4996,-125
4997,-128
4998,-130
4999,-133
